,0,1,2,3,4,5,6,7,8,9,10,11,12,13,14,15,16,17,18,19,20,21,22,23,24,25,26,27,28,29
0,0.126787105672955,-0.0591559893327611,0.0834026015893054,0.0901395608970535,0.114877015814593,0.0509873167226145,0.0288568978194077,0.00402782388281847,0.169297039845148,0.00517551495501809,-0.0206274254835684,0.0584429796169049,0.0446345674684457,0.0305513452924422,0.0124139018052132,0.0354047030175966,0.00281873420401878,-0.077474370659041,-0.00483580740438548,0.0363170597240726,-0.0128128052203914,-0.00545409690977263,0.059253567160517,0.0103303548513996,0.0185516805331044,-0.0388912896265961,0.0212275671445757,-0.0392398496742495,-0.0476300170524947,0.0750317540889393
1,0.124796272330866,-0.0591374048971761,0.08137337475209,0.0911032795339486,0.110953587945674,0.0513442806608615,0.0306214847589426,0.004316518242261,0.16326329121105,0.0025677530535788,-0.0205150994612601,0.057475920763596,0.0495242927143711,0.0321820359153905,0.0131784783209366,0.0320183534427607,0.000886186100230424,-0.0784438896953799,-0.00853086012893021,0.0426356685475651,-0.0120415273660422,-0.00442533090076299,0.0670912633761207,0.00766996109403403,0.0209314779276725,-0.03964048155899,0.021545379016666,-0.038118741808988,-0.0445951104638492,0.0749214398731612
2,0.122741708194474,-0.0591309532126926,0.079289123621996,0.0920439826707785,0.107077586964921,0.0516198896610851,0.0324038008536675,0.00457763238186922,0.157171781264042,-4.1138453968862E-05,-0.0204182861956028,0.0564726291909782,0.0544160608142496,0.0337666636465189,0.0139407445560468,0.0285440760729606,-0.00108811229550738,-0.0794166419339015,-0.012151298637337,0.049112860191167,-0.0113340442410306,-0.00331423619509205,0.0748982537802441,0.00504694894994619,0.0231646100459907,-0.0404587585382002,0.0219422669217844,-0.0370194204024241,-0.0414375759725284,0.0748326961918687
3,0.12062175166015,-0.0591372405449649,0.0771597739662668,0.0929460154842709,0.103264953509252,0.0518024763228572,0.0341955802394564,0.00480557063122901,0.151044849808297,-0.00264087681958051,-0.0203383231523091,0.0554339832647774,0.0592805560459268,0.0352947135246459,0.0146918536377761,0.024992443942913,-0.00309877691708499,-0.0803895899878896,-0.0156822270314267,0.0557277024018127,-0.0107024007826035,-0.00211861622558037,0.0826377330874914,0.0024706321205917,0.0252269750596716,-0.0413443137138549,0.0224161698039284,-0.0359479102832908,-0.0381597686229408,0.0747709757734338
4,0.118434431446128,-0.0591565701657793,0.0749961361244888,0.0937930514540338,0.0995305200406396,0.0518808899000395,0.0359882032010742,0.0049948788814353,0.14490583062236,-0.00522120293610553,-0.0202765543472433,0.0543608862347906,0.0640880726373451,0.0367561124459582,0.0154226519634063,0.0213751004138557,-0.0051405045598643,-0.0813596490703378,-0.0191099024507661,0.0624584378785807,-0.0101583971169582,-0.000836664390306142,0.0902733571758674,-5.04816503690414E-05,0.0270957904813117,-0.0422940443587089,0.02296322038123,-0.0349098894801961,-0.0347638872339433,0.0747414840238934
5,0.116177488287752,-0.0591889175822659,0.0728098485342444,0.0945682459414255,0.0958878416015366,0.0518446796487495,0.0377727548260061,0.00514032229261776,0.138778936830309,-0.007771953244992,-0.0202343253503054,0.0532542617531593,0.068808783482292,0.0381413521898921,0.0161237988273434,0.0177047458187659,-0.00720814456084116,-0.0823236909094907,-0.0224218696174236,0.0692826356390617,-0.00971343660795778,0.000532970592744664,0.0977695967548454,-0.00250877257164084,0.0287498988866652,-0.0433034824221024,0.0235776919967978,-0.033910627976027,-0.0312519388863805,0.0747490604283423
6,0.113848405831237,-0.0592339109249588,0.0706133099787659,0.0952544008209786,0.092349048991988,0.0516842760432557,0.0395400891212623,0.00523696124999792,0.132689128781191,-0.0102831294410404,-0.0202129764724703,0.052115052588764,0.073413007351047,0.0394416060378504,0.0167858949807692,0.0139951133833716,-0.009296767396103,-0.0832785459671786,-0.02560707354666,0.076177337306763,-0.00937837433677458,0.00199111660685169,0.105092084294872,-0.00489757454623445,0.0301700495352976,-0.0443667437363176,0.0242519811455746,-0.0329549347144516,-0.0276257181320631,0.0747980602307349
7,0.111444450481852,-0.0592908170776436,0.0684196006601857,0.095834138321677,0.0889247270839411,0.0513911671337346,0.0412808982479848,0.00528022429308832,0.126661964126101,-0.0127449653159339,-0.0202138340031141,0.050944222694475,0.0778714710075807,0.0406488370130008,0.0173996186115468,0.0102609335446515,-0.0114017291157422,-0.0842210039881247,-0.0286559482177426,0.0831191964663422,-0.00916336820109541,0.00353800841039027,0.112207949968427,-0.00721122332364889,0.0313391504113707,-0.0454764980781038,0.0249766281357218,-0.0320471139041537,-0.0238868019919246,0.0748922384358643
8,0.108962719753147,-0.0593585340518542,0.0662423923300916,0.0962900821488586,0.0856238204869862,0.0509580673551995,0.0429857864204672,0.00526597681767021,0.120723430290143,-0.0151479900966791,-0.0202381994479948,0.0497427626409883,0.0821555629245225,0.0417558958817125,0.0179558671129592,0.00651788589066766,-0.0135187306307086,-0.0851478129588922,-0.0315604793572428,0.0900846097307552,-0.00907773485606505,0.00517321755864052,0.119086142347456,-0.00944508600266316,0.0322424858256327,-0.0466239619744229,0.0257403774977637,-0.0311909314770237,-0.0200365613016091,0.0750346381565988
9,0.10640019846153,-0.0594355900108901,0.0640958478553631,0.0966050438928072,0.0824535682301962,0.0503790761794186,0.0446453479042053,0.00519058444947303,0.114899760079122,-0.0174830876558978,-0.0202873368106688,0.0485116982860661,0.0862375756256082,0.0427566072032877,0.0184459029008936,0.00278253808320403,-0.0156438709703414,-0.0860556766049714,-0.0343142398845286,0.0970498386916648,-0.00912981271164831,0.00689558347543725,0.125697729636582,-0.0115955711272917,0.0328678954528924,-0.0477989157666761,0.0265302788231855,-0.0303895923428216,-0.0160761884218224,0.0752274852663696
10,0.103753821922845,-0.0595201492309259,0.0619945107615192,0.0967622126816,0.0794194685414041,0.0496498241294121,0.0462502484342718,0.00505097010763649,0.109217231715587,-0.01974155100175,-0.0203624580567868,0.0472521024093629,0.090090934062385,0.0436458418905705,0.0188615014352365,-0.000927728700362748,-0.017773693738767,-0.0869412506019613,-0.0369123970011241,0.103991122453247,-0.00932683414723251,0.00870314736256993,0.132016177303796,-0.0136601189435533,0.033205911502567,-0.0489897460181702,0.0273318277222129,-0.0296457288496547,-0.0120067407811388,0.0754720912167265
11,0.101020545141543,-0.0596100251505329,0.0599531854749032,0.0967453459991267,0.0765252742003739,0.0487676038463522,0.0477913092627916,0.00484466391059503,0.10370195514748,-0.0219151314987373,-0.020464706995562,0.0459651089174051,0.0936904078280302,0.0444195749460547,0.0191950995001669,-0.00459480805762717,-0.0199052261092706,-0.087801137720188,-0.0393516903695295,0.110884780951334,-0.00967480900106546,0.0105930907910887,0.138017598110287,-0.0156371717318218,0.0332498516100506,-0.050183513875211,0.0281291455673772,-0.0289614006124163,-0.00782919918553594,0.0757687657505613
12,0.098197416844479,-0.059702700507115,0.05798680917384,0.0965389595617784,0.0737730183258329,0.0477314841075771,0.0492595929350245,0.00456984522263706,0.0983796469996604,-0.0239960823279572,-0.0205951418995583,0.044651929115564,0.0970123054097556,0.0450749272629561,0.0194399417000848,-0.00819997039023702,-0.0220360098053635,-0.0886318821598668,-0.0416303813217961,0.11770730970833,-0.0101784212397394,0.0125616809353646,0.143680970749082,-0.0175261244978094,0.0329958659713667,-0.0513660494854821,0.0289051956665898,-0.0283381056155755,-0.00354453933642471,0.0761167410926584
13,0.0952816571042982,-0.0597953543939516,0.0561103163517232,0.0961285141283545,0.0711630698372218,0.0465424049369093,0.0506464897907666,0.00422537629203622,0.0932753970293589,-0.0259771957666748,-0.0207547172575159,0.0433138694569365,0.100034649070431,0.0456101906256035,0.0195902230357117,-0.0117239784045983,-0.0241641236236419,-0.0894299633651249,-0.0437481735625957,0.124435467047581,-0.0108409405150241,0.0146042244783585,0.148988323587044,-0.0193272566926799,0.0324429382014818,-0.0525220720524424,0.0296420325184435,-0.0277768022376663,0.000846185430612063,0.0765141090394319
14,0.0922707372233126,-0.0598848959013272,0.0543384973864624,0.0955005971081088,0.068694217219757,0.0452032522179916,0.0519438040956441,0.00381082708776998,0.0884134293845712,-0.0278518339519998,-0.0209442651114519,0.041952350113135,0.102737329322369,0.0460248353064094,0.0196412253432442,-0.015147215525804,-0.0262881971553594,-0.0901917896299807,-0.0457061063832043,0.131046355072496,-0.0116641500784496,0.0167150322265758,0.153924880371442,-0.0210416460351981,0.0315928403571917,-0.0536353345757256,0.0303210798733144,-0.0272779415880054,0.00534175252318927,0.0769577722059461
15,0.089162460507526,-0.0599680038376517,0.0526858525959922,0.0946430968335129,0.0663637786271089,0.0437189105098384,0.0531438386300921,0.00332649109832074,0.0838168623310647,-0.0296139528916252,-0.0211644764666984,0.0405689236689664,0.1051022383081,0.0463194999364407,0.0195894453154448,-0.0184498263668752,-0.0284074154601931,-0.0909136918291841,-0.0475064219763528,0.13751749589579,-0.0126482922563993,0.0188873964188708,0.158479165210182,-0.0226710659190134,0.0304500435088605,-0.0546887918078586,0.0309234324836348,-0.026841509298259,0.00994067217877277,0.0774434105243347
16,0.0859550425502972,-0.0600411718702572,0.051166443433708,0.093545367379741,0.0641677357929964,0.0420962930619403,0.0542394765069142,0.00277339201016802,0.0795074703899027,-0.0312581195954616,-0.0214158832814442,0.0391652932205256,0.107113381733316,0.0464959636226556,0.0194327117866663,-0.021611868098782,-0.0305215145368367,-0.091591917624088,-0.0491524090280199,0.143826904678903,-0.0137920323987846,0.0211135825901198,0.162643064657583,-0.0242178682957677,0.0290215861527064,-0.0556647894574378,0.0314301756991163,-0.0264670756809943,0.0146410860107906,0.0779654639237307
17,0.0826471896640221,-0.060100758288992,0.0497937426351621,0.0921983818448787,0.0621008887066799,0.0403443483243016,0.055224258955008,0.00215328133296448,0.0755054529971617,-0.0327795223243567,-0.021698841541777,0.0377433291520698,0.108756969306252,0.0465571005964664,0.0191702899651453,-0.024613471282982,-0.032630767521627,-0.0922226265108097,-0.0506482253474736,0.149953161012983,-0.0150924419106774,0.0233848376568563,0.166411845323795,-0.0256848543165443,0.0273169036089858,-0.056545272195956,0.0318227164681637,-0.0261538529643263,0.0194406648206936,0.0785171319547875
18,0.0792381741441362,-0.0601430394855325,0.0485804852616632,0.0905948720565344,0.0601570275546081,0.0384740425367084,0.0560924577996628,0.00146862718108116,0.0718292138507198,-0.0341739740833033,-0.0220135159113667,0.0363050838782073,0.110021483926005,0.0465068180033657,0.018802970346699,-0.0274350084656206,-0.034735961630571,-0.092801886096053,-0.0519987028637458,0.155875480047945,-0.0165450006656,0.0256914156281104,0.169784126060904,-0.0270751353753197,0.0253476223341243,-0.0573120075857114,0.032083118862932,-0.0259007581463503,0.0243365084420426,0.0790903909468654
19,0.0757279051209002,-0.0601642661616461,0.0475385226910236,0.0887294527454212,0.0583291180586198,0.0364983182542705,0.0568391413903325,0.000722594555523202,0.0684951550434845,-0.0354379096224133,-0.0223598664148743,0.0348528038614469,0.110897730129863,0.0463499777772427,0.0183331401536781,-0.0300572685971633,-0.0368383659456662,-0.09332567000427,-0.0532091388451636,0.161573784567427,-0.018143618787692,0.0280226220148564,0.172761804447083,-0.0283919875132219,0.0231273237694495,-0.0579468226452066,0.0321944369678437,-0.0257064798934762,0.0293250502548361,0.0796760290975664
20,0.0721169938487821,-0.0601607212315466,0.0466786816751229,0.0865987283283787,0.056609496066448,0.0344320289189263,0.0574602327757326,-8.09824056266347E-05,0.0655174899039216,-0.0365683763441115,-0.0227376375744597,0.0333889382488465,0.111378862556031,0.0460923038777551,0.0177648353176861,-0.0324616351372177,-0.0389396902384157,-0.0937898578354827,-0.054285077667841,0.167028778931528,-0.019880677483655,0.030366877623008,0.17534993797822,-0.0296387023971303,0.0206712829386353,-0.0584318494125416,0.0321410378729063,-0.0255695478377573,0.0344019688072388,0.0802636996881706
21,0.0684068123979068,-0.0601287783653137,0.046010630614949,0.0842013805758934,0.0549900670865006,0.0322918498189227,0.0579525590038926,-0.000937635628420356,0.0629080781847164,-0.0375630196438612,-0.0231463503730145,0.0319161435147345,0.111460395401232,0.0457402764935806,0.0171037712658027,-0.0346302655343661,-0.0410420351276069,-0.0941902376017057,-0.0552320878499414,0.172222025487103,-0.0217470883105231,0.0327118019785979,0.17755658107358,-0.030818438268047,0.0179961874742369,-0.0587497755644423,0.0319089076036418,-0.0254884026103473,0.0395621087256036,0.0808419923923327
22,0.0645995448427949,-0.0600649601285657,0.0455427551953294,0.0815382356052903,0.0534625064154349,0.030096165993592,0.0583138905313271,-0.0018423050799306,0.0606762868728771,-0.0384200633293006,-0.0235852973690903,0.0304372835503583,0.111140194049435,0.0453010151155298,0.0163573510748882,-0.0365462696371314,-0.0431478339897088,-0.094522511066569,-0.0560555393646576,0.177136023699855,-0.0237323699884936,0.0350443161634333,0.179392579700882,-0.0319340743540037,0.0151198430874329,-0.0588840959080511,0.0314859331037597,-0.0254614649780652,0.0447994128015323,0.0813985223993438
23,0.0606982301849546,-0.0599659947038704,0.045282045474122,0.0786123088418897,0.0520184555876893,0.027864937844861,0.0585429698601117,-0.00278938676730359,0.058828879452753,-0.0391382858650103,-0.0240535412389199,0.0289554247082118,0.110418450213823,0.0447821526482984,0.0155346499198178,-0.0381938844973026,-0.0452597871814944,-0.0947823023927199,-0.0567603864327376,0.181754291916891,-0.0258247416155522,0.0373507643508091,0.180871326120989,-0.032988072252497,0.0120608716853964,-0.0588193603943646,0.0308621538629845,-0.0254872025218551,0.0501068668344679,0.0819200368101124
24,0.0567067963916313,-0.0598288702275774,0.0452339964346544,0.0754288268264278,0.0506497110784127,0.0256195454165367,0.0586395286827453,-0.00377278594892083,0.0573699359478841,-0.039716993274163,-0.0245499169708359,0.0274738253914603,0.10929764206414,0.0441917029467192,0.0146463751484762,-0.0395586429744391,-0.0473807892951344,-0.094965170460976,-0.0573509610637456,0.186061451342752,-0.0280112309175672,0.0396170528399599,0.182008476938044,-0.0339823477052301,0.00883840838417948,-0.0585414142155935,0.0300299774405259,-0.025564192402456,0.0554764584936066,0.0823925374888676
25,0.0526300850772839,-0.0596508858383343,0.045402523885258,0.0719952250163806,0.049348401506667,0.023382612503278,0.0586042929995813,-0.00478597471264147,0.0563008055065833,-0.0401559895910588,-0.0250730378853623,0.0259959198795823,0.107782480901237,0.0435379243230712,0.0137048017554771,-0.0406275335452716,-0.0495138503411313,-0.0950666251613062,-0.0578307825542222,0.190043311521499,-0.0302777959773548,0.0418288049102308,0.182821638310242,-0.0349181560129831,0.00547180356392426,-0.0580376255516506,0.0289843539555867,-0.0256911788922159,0.0608991511522758,0.082801419273294
26,0.04847386649273,-0.0594296986077861,0.0457898974243274,0.068321121028917,0.0481071500010234,0.0211778119568779,0.0584389758786231,-0.00582205306130306,0.0556200926878388,-0.0404555457966602,-0.0256213055974852,0.0245252962012879,0.105879845987185,0.0428291816702577,0.0127236834822174,-0.0413891487690845,-0.0516620119346358,-0.0950821478672915,-0.0582023879520942,0.19368695637092,-0.0326094587306948,0.0439715293654002,0.183330022819759,-0.0357959940730934,0.0019803358748797,-0.0572970966292508,0.0277229055728909,-0.0258671245052152,0.0663648733455378,0.083131622168265
27,0.0442448446171283,-0.0591633656078889,0.0463966919816795,0.0644182631005902,0.0469192188878052,0.0190296537687393,0.0581462577481257,-0.00687381264807408,0.0553236779591003,-0.0406163681789009,-0.0261929239727308,0.0230656680048786,0.103598709142159,0.0420738098774347,0.0117181402263155,-0.0418338199641946,-0.053828259732686,-0.09500721619337,-0.058467188154349,0.196980829615403,-0.0349904483967989,0.0460308002276988,0.183554083104506,-0.0366155216712951,-0.00161705826190369,-0.0563108539542739,0.0262460080699088,-0.0260912537238706,0.0718625242099198,0.0833677958815201
28,0.0399506522701745,-0.0588503804615236,0.0472217591962031,0.0603004538890995,0.0457786344239216,0.0169632577222194,0.0577297543436441,-0.00793380232027251,0.0554047722503684,-0.0406395670371589,-0.0267859170528386,0.0216208405332022,0.100950050679679,0.0412799811774188,0.0107045228825744,-0.0419537358133673,-0.0560154335186649,-0.094837333000701,-0.0586253538181981,0.199914818310628,-0.0374043529245679,0.0479924446813609,0.183515127903229,-0.0373755042315627,-0.00530203359330467,-0.0550720138750751,0.0245568226961222,-0.0263630884929899,0.077379994985703,0.0834944748108954
29,0.0355998362780049,-0.058489703822581,0.0482622195970707,0.0559834501094338,0.0446802899004855,0.0150041126227633,0.0571939726673482,-0.00899439465656931,0.0558540047380389,-0.0405266265934993,-0.0273981508385547,0.0201946709829387,0.0979467681724513,0.0404555789579959,0.00970025714671297,-0.041743042836579,-0.0582261364415511,-0.0945680594681356,-0.0586757346406792,0.202480333043733,-0.039834276482248,0.0498427360679622,0.183234926641951,-0.0380737787336436,-0.00905705892454795,-0.0535759200294612,0.0226612776860561,-0.0266824748268597,0.0829042064020237,0.0834962613683048
30,0.0312018328387502,-0.0580807873372835,0.0495134762249828,0.05148483887221,0.0436200260681316,0.0131778243224168,0.0565442555525489,-0.0100478527166069,0.056659542377302,-0.0402793768818907,-0.0280273587167701,0.018791023713105,0.0946035794255904,0.0396080803935126,0.00872366818234789,-0.0411979259439946,-0.0604626449808513,-0.0941950518870612,-0.0586158148118585,0.204670383325366,-0.0422630009936999,0.0515685885105726,0.18273530907633,-0.0387072439630978,-0.0128656101395177,-0.0518202497160002,0.0205679999327796,-0.0270496000472989,0.0884211615296328,0.0833580153306407
31,0.0267669333437437,-0.0576235907488305,0.0509692499677501,0.046823891965608,0.0425946884575318,0.0115098549534442,0.0557867156540134,-0.0110863962624169,0.0578072390830316,-0.0398999682629505,-0.0286711702091714,0.0174137209617623,0.0909369208870751,0.0387444500136125,0.00779378837483767,-0.0403166676034121,-0.0627268212190243,-0.0937141016818706,-0.0584417065939593,0.206479646664532,-0.0446731497251834,0.0531577495996573,0.182037766785666,-0.0392718756803211,-0.0167123302711543,-0.0498050868027553,0.0182881984379679,-0.0274650003375069,0.093916013481783,0.08306504674618
32,0.022306241016827,-0.0571185919209019,0.0526216365001204,0.0420213996820438,0.0416021617668276,0.0100252559690637,0.0549281598981471,-0.0121022667566303,0.0592808118927231,-0.0393908490607905,-0.0293271426037667,0.016066489928674,0.0869648425531284,0.0378710460313563,0.00693015066861908,-0.0390996845150706,-0.0650200289643824,-0.0931211780110314,-0.0581481830498703,0.207904529833365,-0.0470473509477763,0.0545989875168825,0.181163063476271,-0.0397627667013858,-0.0205831543476245,-0.0475329594318243,0.0158355022043856,-0.02792955845555,0.0993731471742544,0.0826033098002309
33,0.0178316188329806,-0.0565667896704788,0.0544611843220812,0.0370994861245639,0.0406413820407866,0.00874839775413668,0.0539760056200381,-0.0130877904924566,0.0610620409440838,-0.0387547466473994,-0.0299927949145621,0.0147529072797526,0.0827069002368902,0.0369935409156917,0.00615257020463203,-0.037549541070785,-0.0673430551881562,-0.0924124721758563,-0.0577287499695707,0.208943220885452,-0.0493683997386554,0.0558822690061763,0.180130861084661,-0.0401741912917905,-0.0244653975939084,-0.0450088414816947,0.0132257562065459,-0.0284444916008586,0.104776274221161,0.0819595949585249
34,0.01335562926277,-0.0559696994154884,0.056476992994868,0.0320814082252773,0.0397123278564313,0.00770269871174757,0.0529381897808098,-0.014035439263655,0.0631309896737751,-0.0379946521177259,-0.0306656435049026,0.0134763423197218,0.0781840458723414,0.036116857328338,0.00548091713954414,-0.0356709392708669,-0.0696960381333251,-0.0915844429616754,-0.0571757560528398,0.209595730584151,-0.0516194160380744,0.0569989247233197,0.178959368567812,-0.0404996926993154,-0.028347806451876,-0.0422401174943603,0.0104767799470657,-0.0290113295663529,0.110108539940199,0.0811217166638249
35,0.00889146645499063,-0.0553293417570419,0.058656830291872,0.0269913409610694,0.0388159921425882,0.00691035684988624,0.0518230727935697,-0.0149378880378545,0.0654662412995824,-0.0371138085154844,-0.031343238613753,0.0122399002537001,0.0734185163330147,0.0352451201683215,0.00493488363942915,-0.0334706851684408,-0.072078403334797,-0.0906338619628616,-0.0564805394316161,0.209863922019134,-0.05378399714943,0.0579417987010471,0.177665020026527,-0.0407321921064285,-0.0322205727718025,-0.03923651154111,0.00760809386215493,-0.0296318834379096,0.115352641362586,0.0800786938626781
36,0.00445288151256963,-0.0546482242290425,0.0609872666246872,0.0218541514558841,0.0379543365870006,0.00639208698291792,0.0506393385848593,-0.0157880691520799,0.0680451473917964,-0.0361157023962184,-0.0320232009486185,0.0110463671056388,0.0684337210673185,0.0343816250928864,0.00453374810158885,-0.0309576322956069,-0.0744888086730475,-0.0895578578996868,-0.055633607684975,0.209751527329789,-0.0558463629611003,0.0587053789480556,0.176262188430506,-0.0408641167760905,-0.0360753123987346,-0.0360099812690436,0.00464061946251022,-0.0303082052228648,0.120490955080511,0.0788209206868514
37,5.41015357729213E-05,-0.0539293165593381,0.0634538247841955,0.0166951648128599,0.0371302308203495,0.00616686672234513,0.0493958925767303,-0.0165792226037758,0.0708440841760672,-0.0350040583597813,-0.0327032574601649,0.00989815796953498,0.0632541286977612,0.0335288235226093,0.00429613967687035,-0.0281426028912792,-0.0769250994737715,-0.0883539589195299,-0.0546248476419086,0.209264150601863,-0.0577914922852577,0.0592859065469129,0.174762940704831,-0.040887544705896,-0.0399050102014423,-0.0325745791181811,0.00159635957006497,-0.0310425389020082,0.125505673709095,0.0773403247084742
38,-0.00429025689468398,-0.0531760198956554,0.0660411427631981,0.0115399246249086,0.0363473787128703,0.00625169445750935,0.0481017592888338,-0.0173049420628805,0.0738387121435619,-0.0337828360562186,-0.0333812753964934,0.00879727032575436,0.0579051526047116,0.0326883237989849,0.00423980615007242,-0.0250382880911021,-0.079384274565553,-0.0870201318846787,-0.053443760507333,0.208409256148673,-0.059605248853849,0.0596814610152474,0.1731768393044,-0.0407943627022458,-0.043703934344663,-0.0289462834056023,-0.00150193467527895,-0.0318372635075236,0.130378949681936,0.0756305103286618
39,-0.00856527913755433,-0.0523921305546463,0.0687331472088547,0.00641395117134372,0.0356102341819234,0.00666136251566159,0.0467659812281852,-0.0179592162800481,0.0770042345766809,-0.032456229071128,-0.0340552937518192,0.00774524414884183,0.0524130354169556,0.0318609078492576,0.00438138819588667,-0.0216591285520098,-0.081862464111154,-0.0855548176815214,-0.052079717206359,0.207196141523402,-0.0612744956858867,0.0598920201332973,0.171510794653892,-0.0405764344467442,-0.0474675232651656,-0.025142802619185,-0.00463110321797601,-0.0326948289352678,0.135093045031981,0.0736868850443085
40,-0.0127558481783846,-0.0515817989507562,0.0715132348947513,0.00134250032290861,0.0349239088969503,0.0074082486375844,0.0453975206571838,-0.0185364656131674,0.080315650727979,-0.031028665030051,-0.0347235512746849,0.0067431304574618,0.0468047322579396,0.03104656242869,0.0047362029676201,-0.0180211772644931,-0.0843549199267924,-0.0839569616405354,-0.0505222283366244,0.205635894732134,-0.0627871967405078,0.0599194929050921,0.169768971976405,-0.0402257748596361,-0.0511922493617008,-0.0211833568324549,-0.00776791609711424,-0.0336176853060315,0.139630485728083,0.0715067665631855
41,-0.0168467439674611,-0.0507494844494628,0.0743644595038705,-0.00364967385135497,0.0342940741927821,0.00850212880429137,0.0440051657122622,-0.0190315734400195,0.0837479996101289,-0.0295048062251134,-0.0353845102818907,0.00579146980892137,0.041107792543004,0.0302445237572243,0.00531803989759636,-0.0141419465507995,-0.0868560188872551,-0.0822260382342312,-0.0487612227578175,0.203741335230394,-0.064132504991799,0.0597677247973546,0.167952755086932,-0.0397347268781986,-0.0548754638360365,-0.0170884406297017,-0.0108894054436756,-0.0346082067985181,0.143974219041164,0.069089468998355
42,-0.0208227458003915,-0.0498999069621817,0.0772697209702585,-0.00853854985514565,0.0337268593746356,0.0099500142969957,0.0425974421942012,-0.019439912271222,0.0872765906554814,-0.0278895500581366,-0.036036875630994,0.00489028202272315,0.0353502400841262,0.0294533341485601,0.00613897149022658,-0.0100402414532354,-0.0893592798738429,-0.0803620693231837,-0.046787328634598,0.201526938394693,-0.0653008362975637,0.0594424748788496,0.166060768703069,-0.0390961366691376,-0.0585152274198649,-0.0128795723050092,-0.0139731841727067,-0.0356686109867077,0.148107772305239,0.0664363666630818
43,-0.0246687371268602,-0.0490379961530332,0.0802119546300162,-0.013301060111889,0.0332287484285857,0.0117560156623954,0.0411825321776348,-0.0197573644272091,0.0908772178717615,-0.0261880286087995,-0.0366796083305919,0.00403906813732407,0.0295604512321545,0.0286709090487801,0.00720918176729716,-0.00573598188031466,-0.0918573945515904,-0.0783656353503162,-0.0445921506817982,0.199008743273024,-0.0662839286778932,0.058951364955626,0.164088959744129,-0.0383035232890088,-0.0621101318878986,-0.00857903435997882,-0.0169977455410902,-0.0368008748242376,0.152015411324334,0.0635509343003497
44,-0.0283698121491112,-0.0481688391564438,0.0831743174706938,-0.0179153002485684,0.0328064769480231,0.0139212359861623,0.0397682004038346,-0.0199803371988356,0.0945263545409909,-0.0244056066694666,-0.0373119334083362,0.00323682527301308,0.0237670307732982,0.0278946127627703,0.00853681487463678,-0.00125001599822024,-0.0943422720613619,-0.0762378790409397,-0.0421685374331631,0.196204243543234,-0.0670748868635835,0.058303801259684,0.162030736973197,-0.0373512388985798,-0.0656591172925121,-0.00420961046379086,-0.0199427383215646,-0.0380066485248051,0.155682296565706,0.0604387629107052
45,-0.0319113835312858,-0.0472976277062048,0.0861403688321041,-0.0223607238814785,0.0324669308554694,0.0164436955494561,0.0383617292389129,-0.0201057724759694,0.0982013259676234,-0.0225478776352948,-0.0379333418082367,0.00248207470500467,0.0179986853011942,0.0271213410531425,0.0101278461745563,0.00339607256855357,-0.0968050974852326,-0.0739805013485524,-0.0395108325590946,0.193132261754644,-0.0676682122126062,0.0575108696974698,0.159877167208781,-0.0362346158256029,-0.0691612897646729,0.000205675951225578,-0.0227892130232493,-0.0392871686856212,0.159094635183418,0.057107550683588
46,-0.035279290488028,-0.0464296055500248,0.0890942429935237,-0.0266183207078759,0.0322170482442734,0.0193182895587922,0.036969862807678,-0.0201311509039066,0.101880458266964,-0.0206206566952612,-0.0385435862496432,0.00177290305864745,0.0122840938139445,0.0263476087500021,0.0119859779251938,0.00818016112810153,-0.0992364036973805,-0.0715957495892442,-0.0366151045867235,0.189812807104078,-0.0680598183192357,0.056585206098155,0.157617225218833,-0.0349500970517157,-0.0726157445171678,0.00464381640904345,-0.0255198353498178,-0.0406431720857314,0.162239826844778,0.0535670688870665
47,-0.0384599064621399,-0.0455700169698924,0.0920208111789311,-0.0306707759714423,0.0320637253897215,0.0225367802034268,0.0355987607557951,-0.020054490713869,0.105543201686989,-0.0186299708344853,-0.0391426711495807,0.00110701613698469,0.00665177534102528,0.0255696405105827,0.0141125613843747,0.0130797853065088,-0.101626155956771,-0.0690863979233735,-0.0334793498195178,0.186266917208901,-0.0682470328501048,0.055540843316624,0.155238093335591,-0.0334953470655703,-0.0760213983696159,0.0090820606308649,-0.0281190639089861,-0.0420748116585978,0.165106601295022,0.0498291029264403
48,-0.0414402455437505,-0.0447240571508116,0.0949058306246896,-0.0345026096471137,0.032013727688564,0.0260878238135668,0.0342539619493614,-0.019874341469567,0.109170227469251,-0.0165820452303165,-0.0397308368862542,0.000481804492897485,0.00112995348754114,0.0247834629133868,0.0165065468727998,0.0180723348672149,-0.103963848341995,-0.0664557205627384,-0.0301036638064213,0.182516484591132,-0.0682285863300503,0.0543930374369916,0.152725505819546,-0.0318693404653195,-0.0793768357043337,0.013498143884916,-0.0305732900499242,-0.043581576186352,0.167685145600372,0.0459073691410279
49,-0.0442080667340687,-0.0438968250433163,0.0977360784886509,-0.0381002939713293,0.0320736059869965,0.0299570333764025,0.0329403582874216,-0.0195897730732888,0.112743497772822,-0.0144832857054203,-0.0403085388607308,-0.000105580524224553,-0.00425358211225218,0.0239849961582175,0.0191644629928584,0.0231352454722178,-0.106238610882055,-0.0637074582944303,-0.0264903773644368,0.178584068879599,-0.0680045887640172,0.0531580756816118,0.150064132078105,-0.0300724261967751,-0.0826801712755499,0.017870494524558,-0.0328709385859527,-0.045162215290837,0.169967219061189,0.0418174082671607
50,-0.0467519751201895,-0.0430932792541757,0.100499468544798,-0.0414523482191848,0.0322496184602815,0.0341270761266983,0.0316621786732529,-0.0192003604770765,0.11624630870471,-0.012340256992578,-0.0408764219893448,-0.000658141873014503,-0.00947161732189369,0.0231701437663002,0.0220804258307337,0.0282461839926986,-0.108439326007876,-0.0608457791087586,-0.0226441539036752,0.174492696069591,-0.0675764951152967,0.0518530689489702,0.147237992030178,-0.0281063658654517,-0.0859289327526141,0.0221784183774888,-0.0350025290352607,-0.0468146713041779,0.171946253887221,0.0375764568486783
51,-0.0490615190064183,-0.0423181973808995,0.103185148812973,-0.0445494098969936,0.0325476579261908,0.0385778053779617,0.0304229830585916,-0.0187061646411556,0.119663307015204,-0.0101596566698043,-0.041435291422041,-0.00117894502088488,-0.0144976577751487,0.0223348788275046,0.025246178577736,0.0333832251087628,-0.110554752744517,-0.0578752338890394,-0.0185720456264524,0.170265646546094,-0.0669470607607078,0.0504957321727804,0.144230896219893,-0.0259743451477176,-0.0891199653024814,0.0264022572994293,-0.0369606978597802,-0.0485360195893584,0.173617439875395,0.0332032982165607
52,-0.0511272820431128,-0.0415761390850647,0.10578357852692,-0.0473842817789045,0.0329731842247801,0.0432864252138356,0.0292256663378213,-0.0181077103665624,0.122980481519818,-0.00794828474114056,-0.0419860804211396,-0.00167102146006532,-0.019306075531915,0.0214753255176059,0.0286511615997734,0.0385250171045644,-0.112573656888089,-0.0548007082587086,-0.0142835070535964,0.165926233968313,-0.0661202881061904,0.0491041559066516,0.141026902736015,-0.0236809579350589,-0.0922493599280243,0.0305235198981833,-0.0387401829810114,-0.0503224188482458,0.174977791524786,0.0287180949773395
53,-0.0529409694059726,-0.0408714130827455,0.108286583149759,-0.0499519544747055,0.0335311610937287,0.0482276861322089,0.0280724717264674,-0.0174059616959247,0.12618513079121,-0.00571300896689293,-0.0425298164406625,-0.00213726997840274,-0.0238722576258939,0.0205878348000252,0.0322826125694182,0.0436509349677706,-0.114484945266939,-0.051627371781765,-0.00979036524893348,0.161497577517651,-0.0651013655693183,0.0476965726885603,0.137610782599662,-0.0212321634633321,-0.0953124066931707,0.0345249831441811,-0.0403377725836076,-0.0521690728981262,0.176026196260242,0.0241422052353327
54,-0.0544954871064977,-0.0402080481223155,0.110687386502414,-0.0522496044793015,0.0342259968240109,0.0533741092401571,0.0269650131136661,-0.0166022956206113,0.129265809113413,-0.00346072618419719,-0.0430675865100562,-0.00258035828321033,-0.0281727558766512,0.0196690534257122,0.0361256958602629,0.0487412191411363,-0.116277802074889,-0.0483606257742866,-0.00510674704151893,0.157002370413492,-0.0638966001186953,0.0462911218239991,0.133968485049807,-0.0186352172939129,-0.0983035733957635,0.0383907642909457,-0.0417522208684202,-0.0540702053136815,0.176763442711818,0.0194979850169668
55,-0.0557850135575601,-0.0395897679245359,0.112980619470027,-0.054276567927862,0.0350614879034799,0.0586962361470419,0.0259043057375416,-0.0156984748500657,0.132212253094821,-0.0011983199999574,-0.043600503042592,-0.00300262766608985,-0.0321854371938438,0.0187159855441434,0.0401636599939046,0.0537770985463464,-0.117941825185901,-0.0450060510082102,-0.000248964459288122,0.15246264798325,-0.0625133445074702,0.044905616245091,0.130087594088237,-0.0158985776146929,-0.101216509703038,0.0421063632174396,-0.0429841339755445,-0.0560190482138867,0.177192228307144,0.0148085795591774
56,-0.0568050625763566,-0.0390199699800012,0.115162305181744,-0.0560342905665306,0.0360407648500518,0.0641629013034072,0.0248908044020232,-0.014696620387384,0.135015291684546,0.00106738462252451,-0.0441296711562637,-0.00340600341060802,-0.0358896334470266,0.0177260464311502,0.0443780215299923,0.0587408968008593,-0.119467160315648,-0.0415693565755778,0.00476463953505691,0.147899558915605,-0.0609599202557816,0.0435573150560618,0.125957767744068,-0.0130317889050373,-0.104044076249374,0.045658675962823,-0.0440358297572543,-0.0580078463167912,0.177317145771587,0.0100977062640579
57,-0.0575525370798032,-0.0385017080363616,0.117229821005257,-0.0575262547454719,0.0371662395013754,0.0697415231892693,0.0239244483386305,-0.0135991846126796,0.137666742620437,0.00332966923126043,-0.0446561585156227,-0.00379191357831142,-0.0392662898141237,0.0166971080202327,0.0487487734022254,0.063616120869006,-0.120844630888453,-0.0380563311340971,0.00991388209301901,0.143333143607523,-0.0592455373334916,0.0422627052657184,0.121571151779986,-0.0100453455485212,-0.106778397718108,0.0490359808454061,-0.0449111754364424,-0.0600278771849567,0.17714464848824,0.00538943220790494
58,-0.0580257728133661,-0.0380376780627544,0.119181838143468,-0.0587578845447885,0.0384395531601006,0.075398410469992,0.0230047117196835,-0.0124089255028769,0.140159298550765,0.0055819714402632,-0.0451809685817533,-0.00416121865979442,-0.0422981103618424,0.0156275360896469,0.0532546153307337,0.0683875317184425,-0.122065861500532,-0.0344727976746759,0.0151769646477341,0.138782123716298,-0.0573802113796123,0.0410372960386658,0.116922759981705,-0.00695053846748383,-0.10941093849633,0.0522278991362168,-0.0456154074374312,-0.0620694883380602,0.176682995035968,0.000707949126623325
59,-0.0582245715512513,-0.0376302074508541,0.121018240052599,-0.0597364304490105,0.0398615251855708,0.0810990790142612,0.0221306587505507,-0.0111288825159686,0.142486406213056,0.00781793530944963,-0.0457050180017938,-0.00451415434759904,-0.0449696994593819,0.0145162191058726,0.0578732035876575,0.0730411968801411,-0.123123392944359,-0.0308245728394213,0.0205307258585266,0.134263707129257,-0.0553746791774212,0.0398954285732191,0.112010813739418,-0.00375928827960203,-0.111932599112246,0.055225332788551,-0.0461549378249233,-0.0641221516174527,0.175942173587842,-0.00392265121553823
60,-0.0581502233109641,-0.03728124719913,0.122740021308136,-0.0604708352867959,0.0414321018632303,0.0868085755110681,0.0213010022071873,-0.00976235454490288,0.144642142122528,0.0100314616188796,-0.0462291186876814,-0.00485028938132609,-0.0472676974889334,0.0133625888542174,0.0625814170632999,0.0775645251224908,-0.12401078687431,-0.0271174316752892,0.0259509184027534,0.129793412552139,-0.0532403129918929,0.0388501044400086,0.106837034332563,-0.000483968823711367,-0.114333831346088,0.0580203822017461,-0.0465371518382117,-0.0661745348544232,0.174933807202967,-0.00847859842746219
61,-0.0578055172353352,-0.036992366826643,0.124349168919802,-0.0609715834434993,0.043150305658767,0.092491803336459,0.0205141642412916,-0.00831288020916548,0.146621088219905,0.0122167570651448,-0.0467539649353792,-0.00516850004062779,-0.0491809091967766,0.0121666330991513,0.0673556362812727,0.0819462837377774,-0.124722718347791,-0.023357078535988,0.0314125041902458,0.125384917783516,-0.050989034273958,0.0379128348960422,0.101406882151875,0.00286277484381051,-0.116604769651681,0.0606062474117926,-0.0467702009682842,-0.0682145905272969,0.173671041371101,-0.0129366589202418
62,-0.0571947409069117,-0.0367647517716858,0.125848528434842,-0.06125053562903,0.0450141852594605,0.0981138463112683,0.0197683382506605,-0.00678422061051346,0.148418210855462,0.0143683813950819,-0.0472801257301052,-0.00546696243001552,-0.0507004229297145,0.0109289006107382,0.0721720317486502,0.0861765991959085,-0.125255054664005,-0.0195491246466555,0.0368899621823545,0.121049935482945,-0.0486332271469151,0.0370935133297939,0.0957297380173543,0.00626820973010049,-0.118735376335228,0.0629771164429844,-0.0468627959030125,-0.0702296607035403,0.172168415461226,-0.0172743427673936
63,-0.0563236679699703,-0.0365992030452338,0.127241657467656,-0.0613207517342528,0.0470207671039716,0.10364028606113,0.0190615506104029,-0.0051803445431708,0.150028746345122,0.0164812915074735,-0.047808042179069,-0.00574316322448223,-0.051819718925628,0.00965049896977724,0.0770068578059622,0.0902469421433098,-0.125604919137858,-0.0156990726283113,0.0423576027150979,0.116798119854039,-0.0461856520144299,0.0364003125995519,0.0898190227572169,0.00971969517078015,-0.120715597803966,0.0651280448123504,-0.046824003468435,-0.0722065971658009,0.170441719971881,-0.0214700995872992
64,-0.0551995340413545,-0.0364961389262736,0.128532669550689,-0.0611963045268969,0.0491660093879886,0.109037508839268,0.0183917210860945,-0.00350541602651618,0.151448096128369,0.0185508815954901,-0.0483380298194238,-0.00599392904241784,-0.0525347647782576,0.00833308562386498,0.0818367479655131,0.0941500979153175,-0.125770738682653,-0.0118123080500248,0.0477898820645334,0.11263700715243,-0.0436593595658096,0.0358396086062152,0.0836922522789103,0.0132048558536882,-0.122535529109792,0.0670548303413784,-0.0466630514303918,-0.0741318952310766,0.168507841672713,-0.0255035012658209
65,-0.0538310009903403,-0.0364555985033302,0.129726071413073,-0.06089208711237,0.051444759792503,0.114272997896317,0.0177567208065996,-0.00176378392542213,0.152671734291582,0.0205730184693638,-0.0488702853729434,-0.00621547409879345,-0.0528440961813388,0.00697885271085336,0.0866390075990797,0.0978801238906835,-0.125752274325683,-0.00789409784488985,0.053161710962109,0.108571992296759,-0.0410676054011881,0.0354159310001248,0.0773710264660449,0.0167117435513024,-0.124185583960605,0.0687538874888251,-0.046389144698463,-0.0759918394059637,0.166384598854209,-0.0293554095983931
66,-0.0522281097578763,-0.0364772468828972,0.13082659695473,-0.0604236172059902,0.0538507184018719,0.119315607771535,0.0171544267638392,4.0026657943345E-05,0.15369512990026,0.0225440712882248,-0.0494048973662905,-0.00640346528404076,-0.0527488810833917,0.00559050619684502,0.0913918997636106,0.101432295149656,-0.125550634040576,-0.00394959519974617,0.0584487508756655,0.104606343116303,-0.038423765456528,0.0351319414673256,0.0708809513522417,0.0202289837879798,-0.125656667346213,0.0702221253690085,-0.0460112961013537,-0.077772658692721,0.164090568960411,-0.0330081272188594
67,-0.0504022219659583,-0.0365603819012217,0.131839041287916,-0.0598068413221634,0.0563764074500629,0.124135817225678,0.016582771927889,0.00190132159754285,0.154513686217215,0.0244609350405097,-0.049941859910747,-0.00655310332912844,-0.0522529654580539,0.00417123989503378,0.0960749199442276,0.104803040004168,-0.125168267545018,1.61496844727369E-05,0.0636276921203625,0.100741252924768,-0.0357412523775463,0.0349884395827241,0.0642514951341176,0.0237459040385976,-0.126940347920729,0.0714568334611053,-0.045538174487806,-0.0794606890824696,0.161644910867134,-0.0364455304864843
68,-0.0483659506390519,-0.036703942192066,0.132768098258821,-0.0590579419764973,0.0590131496470123,0.128705957925968,0.0160397902140759,0.00381524398059961,0.155122698478629,0.0263210472423225,-0.0504810888402382,-0.00665921827077404,-0.0513628990185313,0.0027247049416768,0.100669055555596,0.107989867050346,-0.124608942979054,0.0039981737586433,0.0686765082494855,0.0969759311861128,-0.0330334329763927,0.0349843957652644,0.0575157796734903,0.0272526405117076,-0.128029027298401,0.0724555787505423,-0.0449779724583157,-0.0810425405515706,0.159067183992334,-0.0396531833114179
69,-0.0461330804234294,-0.0369065164809213,0.133618204832934,-0.0581931509151246,0.0617510568858208,0.133000416417594,0.0155236557076608,0.00577677981216146,0.155517331463349,0.028122397470635,-0.0510224393423179,-0.0067163770365303,-0.0500879393764768,0.00125497530866379,0.105157026180145,0.11099128544913,-0.123877705644738,0.00799158118361344,0.073574681688466,0.093307731062167,-0.0303135469096713,0.0351170104326467,0.0507103101886355,0.0307402211027255,-0.12891610345606,0.0732161176817926,-0.0443382955590522,-0.0825052657201733,0.156377166298874,-0.0426184312016088
70,-0.0437184777506841,-0.0371663539965453,0.134393395625729,-0.0572285712308398,0.0645790311104016,0.136995807365592,0.0150327157338017,0.00778076364096488,0.155692617629236,0.0298635295102699,-0.051565724183579,-0.00671900063916442,-0.048440033358859,-0.00023349006922254,0.109523500733577,0.11380672016888,-0.12298081924984,0.0119915203861274,0.0783033962030779,0.0897323116370323,-0.0275946267450115,0.0353817980384548,0.0438746468328128,0.0342006226980897,-0.129596125496509,0.0737363258544052,-0.0436260742790882,-0.0838365272406384,0.153594673091261,-0.0453304751020463
71,-0.0411379914533395,-0.0374813759137202,0.135097170683928,-0.0561800109997228,0.0674847790292588,0.140671116520653,0.0145655175483826,0.00982188455606104,0.155643476110732,0.0315435360657947,-0.0521107316284194,-0.00666148821186577,-0.0464337744419278,-0.00173588797837292,0.113755288027721,0.116436423923039,-0.121925690353564,0.0159931593230103,0.0828456925196152,0.0862438316380601,-0.0248894196373958,0.0357726942896206,0.037051022791761,0.0376268016541822,-0.130064937116589,0.0740141478747287,-0.0428474996936864,-0.0850247609589558,0.15073937833685,-0.0477804248643733
72,-0.0384083444086272,-0.0378491877659866,0.135732379374233,-0.0550628307784681,0.0704548421941703,0.144007812349234,0.0141208286120635,0.0118946929849081,0.155364752381494,0.0331620461658975,-0.0526572421776282,-0.00653834493583611,-0.0440863355297116,-0.00324711385353296,0.117841497537941,0.118881387505052,-0.120720776957711,0.0199916602299553,0.0871865842262814,0.0828351705583033,-0.0222103109141321,0.036282184492287,0.030283914385778,0.0410126969475018,-0.130319806244476,0.0740475691992551,-0.0420079830977615,-0.0860593319343339,0.147830640077596,-0.0499613324283802
73,-0.0355470168659547,-0.0382670927923087,0.136301122920509,-0.0538918069475319,0.0734746437257429,0.146989925770694,0.013697650589042,0.0139936086909207,0.154851277894968,0.0347192055615714,-0.0532050433097785,-0.00634431081226907,-0.0414173765881103,-0.00476180638713082,0.121773667566774,0.121143250161653,-0.119375482418667,0.0239821551540288,0.0913131319674861,0.0794981722705183,-0.0195692499635069,0.0369014506637607,0.023619569420965,0.044353206176412,-0.130359538464624,0.0738346111862313,-0.0411121394819972,-0.0869306805099777,0.14488733135575,-0.0518682050160735
74,-0.032572122207767,-0.0387321062053581,0.136804677753635,-0.052681012476936,0.076528552667768,0.149604097959054,0.0132952273772501,0.0161129303229271,0.154097948535413,0.0362156505831021,-0.05375394149198,-0.0060744872115971,-0.0384489269405388,-0.00627439326920967,0.125545858419955,0.123224211555073,-0.117900036070402,0.0279597235460633,0.0952144748828956,0.0762239055439914,-0.0169776789285291,0.037620534781381,0.0171055006839169,0.0476441352711161,-0.130184572036466,0.0733733499235757,-0.0401637942267379,-0.087630455799457,0.141927677965535,-0.05349799883512
75,-0.0295022760038979,-0.0392409703895959,0.137243441408753,-0.0514437162418346,0.0795999665993161,0.15183959668932,0.0129130476223125,0.0182468468128001,0.153099820255163,0.0376524760674068,-0.0543037708339699,-0.00572445819216495,-0.0352052423368877,-0.00777913751952,0.129154708672163,0.125126946747123,-0.116305362143262,0.0319193731198201,0.0988818192259967,0.0730029353618321,-0.0144464648136443,0.0384285153199297,0.0107899520033888,0.050882123419679,-0.129797052535062,0.0726619587355155,-0.039166011933868,-0.0881516341835833,0.138969104267015,-0.0548495939636562
76,-0.0263564593451773,-0.0397901710532179,0.13761690223187,-0.050192301538803,0.0826714127406927,0.153688302229386,0.0125508422889118,0.0203894508539424,0.151852219853542,0.0390311980907978,-0.0548543978862641,-0.00529040371472554,-0.0317126372265975,-0.00927018389215342,0.132599453097463,0.126854525496801,-0.114602938735874,0.035856025071215,0.102308385104377,0.069825598608301,-0.0119858357084191,0.0393136940619401,0.00472134470458858,0.0540645453281024,-0.129200885399603,0.0716987735994823,-0.0381211458942063,-0.0884886206951946,0.136028088257055,-0.0559237512450766
77,-0.0231538775795202,-0.040375954368434,0.13792363365234,-0.0489382039689831,0.0857246673710312,0.155144664286149,0.0122085779572589,0.0225347546262076,0.150350868480785,0.0403537123384754,-0.0554057222234933,-0.00476920208377662,-0.0279992930020162,-0.0107416048599593,0.135881901374473,0.128410337002993,-0.112804648748098,0.0397645045982625,0.105489313293387,0.066682277564168,-0.00960532190889485,0.0402637900540938,-0.00105228744497295,0.0571893934880498,-0.128401764970763,0.0704823800408058,-0.0370309063084809,-0.0886373314938733,0.133120027080669,-0.0567230521613171
78,-0.0199138157171122,-0.0409943451391606,0.138161313251397,-0.0476918683797041,0.0887408929447089,0.15620563199404,0.011886446577937,0.0246767078659717,0.148592015136042,0.0416222490084949,-0.0559576726020707,-0.00415851921604177,-0.0240950433316802,-0.0121874457229334,0.139006377248797,0.129798021050065,-0.110922624813518,0.0436395374791175,0.108421535059503,0.0635636647152233,-0.00731370276800134,0.0412661375311664,-0.00648386655215668,0.0602551436154438,-0.127407178932248,0.0690117194289142,-0.0358964450544374,-0.0885952559878252,0.130259114176662,-0.0572518227773134
79,-0.0166554919128375,-0.0416411660341333,0.13832676632223,-0.0464627241104618,0.0917007918614009,0.156870559369863,0.0115848524557503,0.0268092183162487,0.14657257717859,0.042839325183767,-0.0565101986312651,-0.00345688266319944,-0.0200311380734288,-0.0136017684330344,0.141979618443173,0.131021406332362,-0.108969090383422,0.0474757532624411,0.111103608859513,0.0604610126395824,-0.00511896012739455,0.0423078846385488,-0.0115278339054057,0.0632606068374523,-0.126226387445751,0.0672862119898689,-0.034718454529374,-0.0883614975340142,0.127458229274038,-0.0575160429579657
80,-0.013397910564842,-0.0423120579171477,0.138416033087012,-0.045259177388227,0.0945847754177121,0.157141089034891,0.011304397243507,0.0289261745324489,0.144290284688431,0.0440076956113755,-0.0570632580437347,-0.00266373869146242,-0.0158399876392418,-0.0149786937874379,0.144810638243699,0.132084456548925,-0.106956199213241,0.0512676954128641,0.11353552862509,0.0573663631815487,-0.00302823917290992,0.0433761898547966,-0.0161407000891375,0.0662047725366256,-0.124870376679228,0.0653058932919802,-0.0334972779003771,-0.0879367920293684,0.12472884247801,-0.0575232421519908
81,-0.0101597166790182,-0.0430025012951938,0.138424458223967,-0.0440886193731707,0.0973731460523474,0.157021017311152,0.0110458637116352,0.0310214709649368,0.141743825396239,0.0451303028059334,-0.0576167997917722,-0.00177949113433594,-0.0115548900688767,-0.0163124417115493,0.147510550349363,0.132991224676712,-0.104895875587894,0.0550098385450178,0.115718509069238,0.0542727507254807,-0.00104781751425721,0.0444584131437366,-0.0202815739200915,0.0690866460030657,-0.123351786869919,0.0630715604699646,-0.0322330279628629,-0.0873235040868738,0.122080933691981,-0.0572823831146674
82,-0.00695905323210545,-0.0437078388902526,0.138346800874856,-0.0429574480767627,0.100046290597638,0.15651614402518,0.0108101990213031,0.0330890351898349,0.138932986851102,0.0462102273457579,-0.0581707433261334,-0.00080552117507749,-0.00720974344700771,-0.0175973694292821,0.150092359238326,0.133745815652904,-0.102799657692341,0.0586966126801753,0.117654754035139,0.0511743751281317,0.000816916783713704,0.045542299045003,-0.0239126625248817,0.0719050851940219,-0.121684815526272,0.060584924043719,-0.0309257117371062,-0.0865256008648263,0.119522928599327,-0.0568037350045132
83,-0.00381342331484223,-0.0444232993221404,0.138177362861117,-0.0418711021632957,0.102584881876598,0.155634110494663,0.0105984981699349,0.0351228571146064,0.135858792505622,0.0472506391612941,-0.058724954533592,0.000255812330371283,-0.00283874665709409,-0.0188280073972111,0.152570718959841,0.134352357527303,-0.100678546582295,0.0623224342743275,0.119347214328865,0.0480667407225792,0.00256147759699594,0.0466161491331837,-0.0269997352876899,0.0746586409523573,-0.11988509684574,0.057848760873872,-0.0295753579162219,-0.0855486039821014,0.117061652361902,-0.0560987373391449
84,-0.000739558847495999,-0.045144021869126,0.137910132444277,-0.0408341045035065,0.104970085648589,0.154384229230933,0.0104119882017108,0.0371170199452982,0.132523628470721,0.0482547505291435,-0.0592792189162537,0.00140119192324335,0.00152390820633707,-0.0199990929567722,0.154961663884107,0.134814980986815,-0.0985428632290248,0.0658817435967921,0.120799341722238,0.0449467587377648,0.00418228308523503,0.0476689815275219,-0.0295125449116751,0.0773454049893737,-0.11796955889556,0.0548670635895698,-0.0281821443123644,-0.0843995203053583,0.114702302070114,-0.0551798563356431
85,0.00224670236819291,-0.0458650822520105,0.137538940630874,-0.039850113273398,0.107183769622464,0.152777308865573,0.0102520136849591,0.0390657326683522,0.128931357826525,0.0492257713870893,-0.0598332126894945,0.00262637949172322,0.00584434815625661,-0.0211056017302196,0.157282315511795,0.135137807007577,-0.0964021160915661,0.0693690478837953,0.122014845874368,0.0418128114505346,0.00567664767767966,0.0486906754042707,-0.0314251994562677,0.0799628697929833,-0.115956260558616,0.0516451817343466,-0.0267465225273945,-0.0830867527342668,0.112448438796639,-0.054060435194082
86,0.00513052956395341,-0.0465815193687246,0.137057626750629,-0.0389219783798285,0.109208711038195,0.150825477707493,0.0101200238561339,0.0409633637711171,0.125087419570393,0.050166867479937,-0.0603864725552015,0.00392627216168898,0.0100893325094731,-0.0221427768474731,0.159550569940809,0.135324942258479,-0.0942648816002788,0.0727789695512268,0.12299746079924,0.0386647773697325,0.00704276361088861,0.0496720987417088,-0.0327164799315859,0.082507804379664,-0.113864210673753,0.0481899499111084,-0.025269337198135,-0.0816199924358454,0.110301999862103,-0.0527545399131725
87,0.00789820029580159,-0.0472883628931408,0.13646020983458,-0.0380518010434201,0.111028799178487,0.148542009163264,0.0100175617186162,0.0428044758996926,0.120998909535745,0.0510811217359869,-0.0609383649712208,0.00529497479204995,0.0142265629176379,-0.0231061561388439,0.161784770995211,0.135380481764058,-0.0921386998116628,0.0761062986253192,0.123750727205362,0.0355040177166173,0.00827967217121474,0.0506052178062246,-0.0333700988436877,0.0849761494701844,-0.111713172187388,0.0445097983722622,-0.0237519373331919,-0.0800100942847952,0.10826333162068,-0.0512768022574339
88,0.0105371886629102,-0.0479806616455706,0.13574106219188,-0.0372409944744466,0.112629229119098,0.145941152014701,0.00994625526571548,0.0445838611272201,0.116674640921237,0.0519714991616069,-0.0614880557843974,0.00672588737660126,0.01822498605687,-0.023991597460237,0.16400337433107,0.135308518235669,-0.0900299873143296,0.0793460484411466,0.124277796558608,0.0323333253901387,0.00938722506444643,0.0514831871636706,-0.033374895979162,0.0873629352397603,-0.109523454469753,0.0406148417974963,-0.0221962774660054,-0.0782689375475498,0.106331242722994,-0.0496422615279062
89,0.0130362391858667,-0.0486535126430645,0.134895081532248,-0.036490343733237,0.113996683064131,0.143037968249697,0.00990781087277533,0.046296576476421,0.112125182421925,0.0528408154280166,-0.0620344811210876,0.00821180533415743,0.0220550847291985,-0.0247953023310264,0.166224608042129,0.135113157396703,-0.087943969233902,0.0824935135694272,0.12458126208196,0.0291568384712277,0.0103660366185385,0.0523004192737692,-0.0327249686801766,0.0896622242820881,-0.10731569722414,0.0365169424271725,-0.020605006593447,-0.0764092740967373,0.104503077420937,-0.0478662068230519
90,0.0153854252877597,-0.0493020907426241,0.133917858005414,-0.0358000630668772,0.115119495740197,0.139848180791565,0.00990400877552091,0.047937979304157,0.107362872344576,0.0536917092113756,-0.0625763204338247,0.0097450303952896,0.0256891531264388,-0.0255138380596208,0.168466135394217,0.134798538558187,-0.085884631908069,0.08554432886525,0.124663021122131,0.0259799211114695,0.0112174278094965,0.0530526329985715,-0.0314197348746766,0.0918670818467901,-0.105110649622304,0.0322297442663417,-0.0189815431447159,-0.0744445666526711,0.102774808052853,-0.0459640215105458
91,0.0175761915615309,-0.0499216787957638,0.132805832625935,-0.0351698492514442,0.115987800537624,0.1363880330759,0.00993670042400429,0.0495037621120959,0.102401807509959,0.0545266182366407,-0.0631119725850505,0.0113174895722275,0.0291015520794663,-0.0261441585080533,0.170744725323632,0.134368859641717,-0.0838546974915991,0.0884945284905035,0.124524172405721,0.0228090153533526,0.0119433633699581,0.0537368806300427,-0.0294639281729047,0.093969574777585,-0.102928948427057,0.0277686757302173,-0.0173301345230503,-0.072388819712708,0.101141145399526,-0.0439510316590135
92,0.0196013792681631,-0.0505076982343953,0.131556443716165,-0.0345989297359137,0.116593653382542,0.132674161991206,0.0100078073780312,0.0509899862978424,0.0972578061880692,0.0553477588707346,-0.0636395358083938,0.0129208595332897,0.0322689402698219,-0.026683623606078,0.173075936245485,0.133828405792833,-0.0818556214136415,0.091340603746217,0.124164950705072,0.0196514680271929,0.0125463834794861,0.0543515533160363,-0.026867525402363,0.0959607999116602,-0.100790898910193,0.0231509188482085,-0.0156559000728375,-0.0702564059425262,0.0995956651468011,-0.0418423601944935
93,0.0214552347851316,-0.0510557400026369,0.130168258226033,-0.0340861046720557,0.116931131694713,0.128723485241049,0.0101193212958819,0.0523931143091071,0.0919483447706589,0.056157109016292,-0.0641567923252914,0.0145466935991662,0.0351704776217395,-0.0271300176695421,0.175473818538871,0.133181580675079,-0.0798876132522915,0.0940795585615353,0.123584700369692,0.0165153373506567,0.0130295317310761,0.0548963650357111,-0.0236456080105969,0.097830942016413,-0.0987162623396403,0.0183953439571765,-0.0139648566370121,-0.0680618908622701,0.0981309482483982,-0.0396527885417542
94,0.0231334010061386,-0.0515615957352383,0.128641085070622,-0.0336297822154663,0.116996406225725,0.124553103714093,0.0102733044688211,0.0537100396150355,0.0864924683526791,0.0569563939799006,-0.0646611983105975,0.0161865485392776,0.0377879974241903,-0.027481566510555,0.177950640812744,0.132432939479522,-0.0779496812169034,0.096708961520898,0.122781888088171,0.013409184210426,0.0133962812086025,0.0553723155416881,-0.0198181598014743,0.0995693606534107,-0.0967240536957419,0.0135224096689268,-0.0122639261755999,-0.0658198586641868,0.0967387325740749,-0.0373966274784582
95,0.0246328919756204,-0.0520212890604268,0.126976067961975,-0.0332280067873885,0.116787784073302,0.120180218977966,0.0104718902742511,0.0549381138694275,0.0809106758636765,0.0577470749352062,-0.0651498797964706,0.0178321083746283,0.0401061441541731,-0.0277369532525368,0.180516644714566,0.131587222625287,-0.0760397000371155,0.099226993366938,0.121754154163378,0.0103418533262128,0.0136504605870186,0.0557816329444999,-0.0154098044701034,0.101164704684759,-0.0948323530850951,0.00855402876427208,-0.0105609252100583,-0.0635447419484017,0.0954100728749879,-0.0350875988650702
96,0.0259520513199968,-0.0524311068733134,0.12517575559639,-0.0328784802859732,0.116305721720636,0.115622065557674,0.0107172828643144,0.0560751706151618,0.0752247808545891,0.0585303395775742,-0.0656196349812645,0.0194753024896146,0.0421124744798527,-0.027895332686872,0.183179832626959,0.13064938906579,-0.0741545016484248,0.101632488988914,0.120498400544283,0.00732224958433657,0.0137961821767977,0.0561276968643368,-0.0104494873497874,0.102605052486533,-0.0930581340533042,0.00351340151936755,-0.00886453613681247,-0.0612506580634192,0.0941355058188643,-0.0327387298121807
97,0.0270904953076997,-0.0527876303860104,0.123244147487586,-0.0325785765200932,0.115552807543317,0.110895857233631,0.0110117553768132,0.0571195448712502,0.0694577494964254,0.059307094577037,-0.0660669432723657,0.0211084155176257,0.0437975195068258,-0.0279563439355077,0.185945792107806,0.129624648058268,-0.0722899876383579,0.103924972989144,0.11901091289189,0.00435911478571683,0.0138377737752234,0.0564149433165196,-0.00497010666775774,0.103878075319572,-0.0914171116569372,-0.00157518121495677,-0.00718426071676429,-0.0589512545925128,0.0929052166573698,-0.0303622607085223
98,0.0280490416271049,-0.0530877657130642,0.121186714200303,-0.0323253494003914,0.114533713846577,0.106018746211676,0.011357645952729,0.0580700879556018,0.0636335177757652,0.0600779594806203,-0.0664879812430502,0.0227241866903828,0.0451548069810853,-0.0279201211212625,0.188817560368551,0.128518488208741,-0.0704412619791023,0.106104688006272,0.117287513092607,0.00146080989003017,0.013779716061182,0.0566487527320634,0.0009918995892699,0.10497122074213,-0.0899236127433191,-0.00668656210442427,-0.0055303562968573,-0.056659566341184,0.0917092039971886,-0.0279695683578654
99,0.0288296252107281,-0.0533287736970592,0.119010391225349,-0.0321155356537642,0.113255119126069,0.101007793690424,0.0117573508696877,0.0589261769286959,0.0577767902687376,0.0608432617907366,-0.0668786455285606,0.0243158966229901,0.0461808428644699,-0.0277873016999114,0.191795531456387,0.127336702579166,-0.0686027821303664,0.10817261505825,0.115323737893375,-0.00136489243391884,0.0136265870805608,0.0568353227441514,0.00739700438866645,0.105871912444568,-0.0885904704120843,-0.0117949648379631,-0.00391375555696495,-0.0543878859583683,0.0905374391607948,-0.0255711052622641
100,0.0294352026505321,-0.0535082986216225,0.116723546231082,-0.0319455530234268,0.111725601869421,0.0958799500906085,0.0122133141533317,0.0596877180962818,0.0519128232319669,0.0616030330464398,-0.0672345825315211,0.0258774398377014,0.0468750524377212,-0.0275590320789547,0.194877408113025,0.126085408644665,-0.0667685261627172,0.110130485245595,0.113115038737462,-0.00411100050723211,0.0133830151214914,0.0569815275948053,0.0142030725337493,0.106567762457052,-0.0874289441075863,-0.0168742607082581,-0.00234597080225475,-0.0521476500680299,0.0893800167448976,-0.0231763558440441
101,0.0298696469384154,-0.0536243954009854,0.114335919913731,-0.0318114950734542,0.109955507816252,0.0906520430251842,0.0127280131083718,0.0603551440832379,0.0460671950595209,0.0623570058491508,-0.0675512246575146,0.0274033816995741,0.0472396818469859,-0.0272369701394226,0.198058199532671,0.124771061920217,-0.0649321731420866,0.11198078222609,0.110656997439581,-0.00677147758848005,0.0130536409795331,0.0570947662309392,0.0213658638287364,0.10704679134028,-0.0864486662341091,-0.0218982494444675,-0.00083898403895093,-0.0499493425005637,0.0882272932130789,-0.0207938101210889
102,0.0301376344240433,-0.0536755547812222,0.111858541139168,-0.0317091238326083,0.107956793154675,0.0853407709825847,0.0133039393172688,0.0609294040862953,0.0402655674147879,0.0631046118921545,-0.0678238326638832,0.0288889988352075,0.047279661774664,-0.0268232842896988,0.201330265444044,0.123400462138617,-0.0630872936468927,0.113726734938409,0.107945552058335,-0.00934139357364132,0.0126430902717086,0.057182801360814,0.028839550305519,0.107297651728441,-0.0856576156166579,-0.0268409491142145,0.000594875719616552,-0.0478024158975446,0.0870700106897141,-0.0184309550423109
103,0.0302445260057932,-0.0536607260434575,0.109303617515312,-0.0316338615877171,0.105742846637241,0.0799627006694925,0.0139435747852017,0.0614119470309117,0.0345334405529374,0.0638449811613493,-0.0680475435831809,0.0303303025196224,0.0470024356662194,-0.0263206487136416,0.20468340610836,0.121980750953477,-0.0612275469755715,0.115372300120254,0.104977227200101,-0.0118170515020778,0.012155956086721,0.0572535919246297,0.0365772391025611,0.107309850461613,-0.0850621175687546,-0.0316768896812264,0.00194306627017128,-0.0457152326224527,0.0858994035462161,-0.0160942833579947
104,0.0301962446565427,-0.053579336668941,0.106684402954757,-0.0315807831740892,0.103328294035064,0.0745342660096685,0.0146493630618817,0.0618046974971101,0.0288959065019827,0.064576942562281,-0.0682174235797709,0.0317240449339076,0.0464177556604791,-0.0257322345279107,0.208104996972453,0.120519400260615,-0.0593468813566895,0.116922134244213,0.101749363012838,-0.0141960865021908,0.0115967918707557,0.0573151215895988,0.0445314925509919,0.107073964526035,-0.084666869791929,-0.0363814047129357,0.00319297532444217,-0.043695025549408,0.0847072858743074,-0.0137893195513842
105,0.0299991514311368,-0.0534313084143066,0.104015044181736,-0.0315446101131134,0.100728788704268,0.0690717669131248,0.0154236753389101,0.0621100244393725,0.0233774038673852,0.0652990262870342,-0.0683285250136535,0.0330677086058289,0.0455374500303581,-0.025061696633444,0.211580165862027,0.119024190377099,-0.0574397333048257,0.118381554590066,0.0982603372879986,-0.0164775354074099,0.0109701140597766,0.0573752260028231,0.0526548371425432,0.106581846114954,-0.0844749928319303,-0.0409309157822971,0.0043320708904944,-0.0417478789288153,0.0834861185056071,-0.0115206620048728
106,0.0296599221037061,-0.053217069255331,0.101310408507173,-0.0315197079197188,0.0979607923055623,0.0635913661025223,0.0162687716993728,0.062330702903747,0.0180014780643074,0.0660094682593928,-0.0683759469170743,0.0343594797359955,0.0443751665220363,-0.0243131561309705,0.215092009765199,0.117503177489783,-0.0555012221777391,0.119756489292913,0.0945097753684223,-0.018661875875916,0.0102804135967411,0.0574414216171875,0.0609002533266037,0.105826812325376,-0.0844881033623767,-0.0453032042970249,0.00534805675913769,-0.0398787291516726,0.0822290548391324,-0.00929204022997322
107,0.0291854265387067,-0.0529375606898379,0.0985858955407532,-0.0315000878488473,0.0950413498911023,0.0581090824959154,0.0171867578769475,0.0624698691363444,0.0127905507581748,0.0667062169869227,-0.0683548980328096,0.0355982064729854,0.0429460964632431,-0.0234911782672434,0.218621847463708,0.115964649986125,-0.0535273359852492,0.121053416357242,0.0904987429434161,-0.0207510344465315,0.00953217513200173,0.0575207389394413,0.0692216385047146,0.10480381530878,-0.0847064081626999,-0.0494776658076699,0.00622903078459773,-0.0380913848622387,0.0809299653525516,-0.0071063856690883
108,0.0285826128097777,-0.0525942399439804,0.0958572358275026,-0.0314794142733113,0.0919878636510406,0.0526407798812301,0.0181795380574548,0.0625309696747296,0.00776570220064493,0.067386943106816,-0.0682607615146373,0.0367833435225887,0.041266684879166,-0.0226007459836914,0.222149503541874,0.114417073511641,-0.0515151045765261,0.122279291809303,0.0862299172832098,-0.0227483635506866,0.00872990241257435,0.0576195630302068,0.0775742361540038,0.103509589086161,-0.0851288163068803,-0.0534355422776603,0.00696364353465268,-0.0363885655106382,0.0795834412733334,-0.00496591429235718
109,0.0278583979480583,-0.0521890766986037,0.0931402796829397,-0.0314510187862873,0.0888178695964292,0.0472021498643233,0.019248764419505,0.0625177052096659,0.00294646997563942,0.0680490518437955,-0.0680891603485939,0.0379148847512373,0.0393543320968527,-0.0216472292482441,0.225653618664093,0.112869024861221,-0.0494627564872294,0.123441467370796,0.0817077330083974,-0.0246585880699241,0.00787814813408857,0.0577434840094595,0.085915024709266,0.101942769707579,-0.085753066784397,-0.0571601283234082,0.00754125480249626,-0.0347719571008261,0.0781847784491684,-0.00287221897583401
110,0.0270195670317678,-0.0517245440406771,0.0904507797461539,-0.0314079219992657,0.0855488213477331,0.0418086883191009,0.0203957842568489,0.0624339701911432,-0.00164933258860903,0.0686896985106201,-0.0678360225188088,0.0389932856663954,0.0372270924314533,-0.0206363504597427,0.229111980479438,0.111329115102998,-0.0473698559573556,0.124547598268341,0.076938499091868,-0.026487722574829,0.00698154636808605,0.0578971601873319,0.0942030606588892,0.100103985971767,-0.0865758685361368,-0.060636948028472,0.00795208542584241,-0.0332422835820037,0.0767299429649136,-0.00082636946646214
111,0.0260726821288139,-0.0512036034455665,0.0878041709626006,-0.0313428638584468,0.0821978850022249,0.0364756648096897,0.0216215856491007,0.0622837893218539,-0.0060057754335941,0.0693058070836807,-0.0674976449165625,0.0400193778248424,0.0349033755316683,-0.0195741463182788,0.23250186910063,0.109805902646694,-0.0452374169305902,0.125605542034501,0.0719304844379636,-0.0282429609002367,0.00604484559241644,0.0580841962508914,0.102399771252876,0.0979959185105622,-0.0875930497064535,-0.0638538995805109,0.00818736185239543,-0.0317993920588736,0.075215520493216,0.00117098237992043
112,0.025024002382077,-0.0506296837058801,0.0852153518355698,-0.0312483431271979,0.0787817487721391,0.031218084690221,0.0229267427474048,0.0620712522261125,-0.0101089457367476,0.0698940917872074,-0.0670707549790951,0.0409942773340348,0.032401655823048,-0.0184669266502933,0.235800410821362,0.108307797292193,-0.0430679912123058,0.126623249394925,0.066693970063332,-0.029932540199086,0.00507294034422169,0.0583070386972402,0.110469193267988,0.0956233256754095,-0.0887997127888208,-0.0668013656537266,0.0082394509276951,-0.0304423497629712,0.0736386517301948,0.00311949445671435
113,0.0238794162910659,-0.0500066538384705,0.0826984708369009,-0.0311166664784568,0.0753164507223069,0.0260506438193071,0.0243113618166859,0.0618004476961193,-0.0139470548650194,0.0704510815282006,-0.0665525690486364,0.0419192896748965,0.029740195234399,-0.0173212307613585,0.238984933581521,0.10684295661451,-0.0408657283921557,0.127608648561783,0.061241266602777,-0.0315655820693752,0.00407089957903006,0.0585668904181324,0.118378155405828,0.0929930353289877,-0.0901903922770695,-0.0694722881466197,0.0081019824633918,-0.0291695505380322,0.0719969565518961,0.00501902572219002
114,0.0226443870014196,-0.049338790119597,0.0802667218371171,-0.0309400074103101,0.0718172274959381,0.0209876760559116,0.0257750292267408,0.0614753989944186,-0.0175105169175852,0.0709731469463766,-0.0659408464641595,0.0427958130901551,0.0269367840336117,-0.0161437819598997,0.242033317660517,0.105419176342969,-0.0386364056243846,0.128569524458311,0.0555866965668993,-0.0331519137611191,0.00304398994816148,0.0588636460188204,0.126096403088498,0.0901139023349117,-0.0917592114273226,-0.0718622065730635,0.00776995727252986,-0.0279788284506183,0.0702884497296039,0.00686952926613505
115,0.0213239111714332,-0.0486307375158743,0.0779321523012424,-0.0307104749444018,0.068298386407419,0.0160430939309297,0.0273167626112804,0.0611000017257385,-0.0207919980610215,0.0714565297816605,-0.0652339384393602,0.0436252427540591,0.0240085041444888,-0.0149414409494457,0.244924335168784,0.104043776660189,-0.0363874258994838,0.129513394579545,0.0497465414711753,-0.0347018728384588,0.00199769239110034,0.059195849102499,0.133596665632343,0.0869967322427832,-0.0935000347872825,-0.0739692600848798,0.007239838534494,-0.026867576045867,0.0685114511621269,0.00867094929865793
116,0.0199224917468097,-0.0478874658920642,0.0757054878023637,-0.0304201917964186,0.0647732027116364,0.0112303231107485,0.0289349664175713,0.0606779657780365,-0.0237864364725005,0.0718973742148839,-0.0644308308402048,0.0444088778691809,0.0209715187766013,-0.0137211588228612,0.247637972110726,0.102723486567448,-0.0341277840277079,0.130447383349884,0.0437389546234458,-0.0362260989913155,0.000937710671330738,0.0595606723805935,0.14085466698974,0.0836541723738843,-0.0954066132591647,-0.0757941537690715,0.00650962457652899,-0.0258328647289579,0.0666644936223879,0.010423124062821
117,0.0184441247436213,-0.0471142214829666,0.0735959761373807,-0.0300613814278568,0.0612538432439505,0.00656223147825732,0.0306273930494171,0.060212762767627,-0.0264910333059629,0.0722917598015851,-0.0635311800531979,0.0451478337251067,0.0178408915886424,-0.0124899304067726,0.250155727105055,0.101464328627482,-0.0318680001787124,0.131378096970398,0.0375838409857423,-0.0377353169560031,-0.000130029243874684,0.059953921087558,0.147849082418541,0.0801005722113288,-0.0974727186300742,-0.0773400905054966,0.00557890143053876,-0.0248715647660422,0.0647462309777888,0.0121256964651277
118,0.01689229991577,-0.0463164742130952,0.0716112539972016,-0.0296264631059549,0.0577513169800288,0.0020510538443272,0.0323911107621156,0.0597075803049742,-0.0289052156622298,0.0726357355896423,-0.0625353412299418,0.0458429606026473,0.0146304379371281,-0.0112547486957784,0.252460881268396,0.100271506498191,-0.0296200214697941,0.132311500858644,0.0313027061074663,-0.0392401147093771,-0.0011993897536233,0.060370059795764,0.154561444537993,0.0763518156710997,-0.0996922647292378,-0.0786126702825788,0.00444887384031651,-0.0239804624628716,0.0627553497348588,0.0137780339817713
119,0.0152700149665334,-0.045499861532728,0.0697572387561234,-0.0291081538211388,0.0542754524089541,-0.00229168653987435,0.0342224793985686,0.0591652842274216,-0.031030573059773,0.0729253549853738,-0.0614443883030436,0.0464947712168055,0.0113526100531248,-0.0100225610828405,0.254538734294432,0.0991492977092486,-0.027397092753162,0.133252801869392,0.0249184766543459,-0.0407507212403554,-0.00226404260531262,0.0608022623494863,0.160976003231915,0.0724251284575136,-0.102059412655932,-0.0796197594389497,0.00312237374974709,-0.0231563721926389,0.0606904865861802,0.0153791591437423
120,0.013579802752928,-0.0446701295111476,0.0680380475107077,-0.0284995756453951,0.0508349009658494,-0.00645525837833002,0.0361171349596087,0.0585883897276439,-0.0328707693553822,0.0731567109084061,-0.0602601252915264,0.0471033781648345,0.00801841725706919,-0.00880022803503651,0.25637680239166,0.0981009541091486,-0.0252135984040336,0.134206337540612,0.0184552955283961,-0.042276788269848,-0.00331750040018624,0.0612424842735337,0.16707954474219,0.0683388642667307,-0.104568657865713,-0.0803713328148781,0.00160384568861433,-0.0223962411028383,0.0585501544099611,0.0169276916394862
121,0.011823770725573,-0.0438330719868145,0.0664559450242629,-0.0277943668677325,0.0474371651509388,-0.0104298032596678,0.0380699838777493,0.0579790420502396,-0.034431432444146,0.073325970754354,-0.0589850885495024,0.0476684425876659,0.00463738158231579,-0.00759448478519338,0.257964974473087,0.0971286123255103,-0.0230848775395365,0.135175474626184,0.0119382949868456,-0.043827180279671,-0.00435315837789026,0.0616815566666862,0.172861176039635,0.064112274073846,-0.107214897304954,-0.0808792922449723,-0.00010069112032971,-0.021697244529649,0.0563326788986352,0.0184218028075829
122,0.0100036516454211,-0.0429944686196881,0.0650113217250634,-0.0269867950220701,0.0440886493886641,-0.0142064157018282,0.0400752077113543,0.0573390071446707,-0.0357200243710051,0.0734294106696637,-0.057622539759171,0.0481891349719751,0.00121752844717633,-0.00641190651438625,0.259295623810727,0.0962332164396015,-0.0210270156876803,0.136162519143978,0.00539335152102301,-0.0454097771184289,-0.00536434588536528,0.0621093002660978,0.17831208115004,0.0597652631046436,-0.109993475241395,-0.0811572651894725,-0.00198370369149182,-0.0210568703824979,0.0540361476814332,0.0198591830299156
123,0.0081208644236044,-0.0421600227232167,0.0637027023702177,-0.0260718697370721,0.0407947311697199,-0.0177772208801361,0.0421262787959333,0.0566696723635279,-0.0367456947109235,0.0734634486393543,-0.0561764496273884,0.0486641087266158,-0.00223458869308055,-0.0052588773938497,0.260363673260674,0.0954144548810302,-0.0190566164620216,0.137168640074724,-0.00115317345360654,-0.0470312932748851,-0.00634438660635151,0.0625146580679862,0.18342525653888,0.055318140339039,-0.112900206944712,-0.0812203875743618,-0.00403622858294742,-0.0204729910262639,0.0516583734659276,0.0212370222823276
124,0.00617658374492114,-0.0413352997733822,0.0625267854286114,-0.0250454531956384,0.0375598495850066,-0.0211354486197193,0.0442159871824495,0.0559720569941556,-0.037519120224863,0.0734246758999127,-0.0546514724127605,0.0490914868723947,-0.00571383145564052,-0.0041415637439363,0.261166613107971,0.094670713305062,-0.0171905572688889,0.138193808686018,-0.00767470282288663,-0.048697117646203,-0.00728666633401137,0.0628858446130034,0.188195232911506,0.0507913655120733,-0.115931379915332,-0.0810850750833284,-0.00624797650642561,-0.0199439214795355,0.0491968723639148,0.0225520038578058
125,0.00417181696361673,-0.0405256675004816,0.0614785126628488,-0.0239043659024743,0.0343876080147768,-0.0242755022649431,0.046336478962304,0.0552468321215997,-0.0380523338808461,0.0733098862183735,-0.0530529115850084,0.0494688618986786,-0.0092163897675182,-0.00306589145813718,0.261704471545839,0.0939990449292069,-0.0154457334693832,0.139236755224201,-0.0141447184941695,-0.0504111772809121,-0.00818470682337626,0.0632105097918194,0.192617790863374,0.0462052985679333,-0.119083732927761,-0.08076878721494,-0.0086074567708593,-0.0194684630599893,0.046648858195852,0.0238003110491667
126,0.00210748660699523,-0.0397362384667699,0.0605511678106147,-0.022646485428155,0.0312808874860371,-0.0271930210846032,0.0484793058299624,0.0544943490524381,-0.0383585463516336,0.0731161026240848,-0.051386677096527,0.0497933085724267,-0.0127396681632499,-0.00203752773599812,0.261979738758082,0.0933951594853864,-0.013838795727896,0.140294944417348,-0.0205370371249483,-0.0521758281478817,-0.00903224407209583,0.0634759147977925,0.196689677719593,0.0415799563848397,-0.122354413729945,-0.0802897883886544,-0.0111021197155358,-0.0190459319373617,0.044011253192415,0.0249776463663509
127,-1.54833075060082E-05,-0.0389718160198762,0.0597365026913989,-0.0212708358312644,0.0282419670596664,-0.029884934930232,0.0506354854736467,0.0537146752908618,-0.038451963070786,0.0728406012386243,-0.0496592349226433,0.05006140924019,-0.0162821485706347,-0.00106186707215444,0.261997246483629,0.0928534315985049,-0.0123858854932785,0.141364570872479,-0.0268260823949166,-0.0539917754783514,-0.00982330925264464,0.0636691176495559,0.200408332642633,0.0369347813289342,-0.125740916804641,-0.0796669102598571,-0.0137185149462072,-0.018676172394583,0.0412807151370453,0.0260792626702686
128,-0.00219607903928143,-0.0382368444876221,0.0590248885079653,-0.019777665557015,0.0252726475550073,-0.0323495099371491,0.0527955721201778,0.0529076368565969,-0.038347599853096,0.0724809319168941,-0.0478775496960663,0.0502692909436514,-0.0198432334274481,-0.000144021359998231,0.26176400578002,0.092366929042189,-0.0111023736699246,0.142440575040273,-0.0329871494662672,-0.0558580256556126,-0.0105523104572107,0.06377716552784,0.203771626673777,0.0322884258216517,-0.129241003135044,-0.0789193191959885,-0.0164424628853731,-0.0183595549408489,0.0384536806234172,0.0271000054331132
129,-0.00443310894660955,-0.0375353644433874,0.0584054895877037,-0.0181685117686883,0.0223743749603099,-0.0345863841467732,0.0549497363007472,0.0520728655731369,-0.0380610999671842,0.0720349354833509,-0.0460490214156708,0.0504126734742661,-0.0234230732994047,0.000711186113090162,0.261289006449328,0.0919274609588437,-0.0100026075379421,0.143516679974244,-0.0389966574724251,-0.0577718709958828,-0.0112141134138158,0.0637872910195352,0.206777623824281,0.0276585566293169,-0.132852604408475,-0.0780662925834042,-0.0192592368954634,-0.0180969597577586,0.0355264237392838,0.0280343651861329
130,-0.00672511737610373,-0.0368709738208793,0.057866456332219,-0.0164462492825605,0.0195483600071248,-0.0365965920374818,0.0570878526589064,0.0512098498370734,-0.0376085553893957,0.0715007574171997,-0.0441814173430785,0.0504869273210278,-0.0270223834042353,0.0014992230774625,0.260582982237293,0.0915256457744954,-0.00909967087164211,0.144585448643727,-0.0448323861490732,-0.0597289080864372,-0.011804119381208,0.0636871092406597,0.209424368664146,0.0230616820218598,-0.136573714524373,-0.0771270072887258,-0.0221537530383533,-0.0178897462814419,0.0324951291355669,0.0288765390910985
131,-0.00907030263771921,-0.0362467955911598,0.0573951337289313,-0.0146151225416911,0.0167956905996936,-0.0383825770819326,0.059199594398366,0.0503179873069807,-0.0370063347708023,0.0708768579063789,-0.0422828003060337,0.05048714031558,-0.0306422535864771,0.00221584746816698,0.259658146465696,0.0911509981979731,-0.00840516198513337,0.145638361087277,-0.0504736930628842,-0.0617230896382175,-0.0123183385215709,0.0634648127227974,0.211709705089183,0.0185130043196966,-0.140402271633293,-0.0761203431998795,-0.0251107644008703,-0.0177397100202518,0.0293559781000122,0.0296205004710675
132,-0.0114664410502151,-0.0356654526313134,0.0569782814394117,-0.0126807593723542,0.0141174340806122,-0.0399481916010084,0.0612745327730261,0.0493966379247013,-0.036270920415993,0.0701620182511089,-0.0403614547003103,0.0504081916496277,-0.0342839563326211,0.00285710381907892,0.258527903215981,0.0907920343751767,-0.00792899410830954,0.146665910232693,-0.0559017082913231,-0.0637468090879629,-0.0127534571755446,0.0631093609006003,0.2136311300999,0.0140262996770787,-0.144336034211389,-0.0750647043312686,-0.0281150568441094,-0.0176490279704824,0.0261052459329269,0.0302600750582884
133,-0.0139108189658039,-0.0351290503119745,0.0566023012266303,-0.0106501656117044,0.0115147266752401,-0.0412986833558549,0.0633022398606585,0.0484451757037434,-0.0354187563078887,0.0693553436537985,-0.0384258115190635,0.0502448318307026,-0.0379487573680792,0.00341931735223132,0.257206539556329,0.0904363939760231,-0.00767922207497747,0.147657714779134,-0.0610995038504254,-0.0657910164699603,-0.0131068976171347,0.0626106610381895,0.215185685518141,0.00961382626122218,-0.148372454860914,-0.0739778595047657,-0.0311516430217553,-0.0176201942146016,0.0227394086250573,0.0307890226599038
134,-0.0164001745604669,-0.0346391672097063,0.0562534673254863,-0.00853170006856495,0.00898884788187118,-0.0424406685056552,0.0652723927398432,0.0474630377883533,-0.0344661089226509,0.0684562624840508,-0.0364843737399437,0.0499917670546209,-0.0416377332378581,0.00389908629703222,0.255708904599069,0.0900709777251642,-0.00766189879887206,0.148602647152629,-0.0660522356475245,-0.0678453633917498,-0.0133768690434462,0.0619597374869903,0.21636988961901,0.00528626130388201,-0.152508555615121,-0.0728768041233837,-0.0342059515551721,-0.0176559474625184,0.0192552565727624,0.0312011229024159
135,-0.0189306510061802,-0.0341968542106187,0.0559181553032211,-0.00633502967219734,0.00654127805227884,-0.0433820907550197,0.0671748771118774,0.0464497694002371,-0.0334289422688518,0.0674645221565272,-0.0345456433680816,0.0496437464080335,-0.0453516000438332,0.00429327300912624,0.254050081389044,0.0896820986469204,-0.00788096443576426,0.149488974223029,-0.0707472562449155,-0.06989837431331,-0.0135624087548832,0.0611488862826526,0.217179709686786,0.00105266684858572,-0.156740808511497,-0.0717776440475566,-0.0372640083473535,-0.017759192423679,0.0156500128423714,0.0314902636903562
136,-0.0214977624229898,-0.0338026421152674,0.0555830650010412,-0.00407106506664304,0.00417373792417039,-0.044132166716612,0.0689998883796669,0.0454050634429774,-0.0323228082611928,0.0663801818067319,-0.0326180513710155,0.0491956502743842,-0.0490905571957188,0.00459899448003444,0.252245057749201,0.0892556450781826,-0.00833817049404109,0.150304508219121,-0.0751741972513847,-0.0719376407652458,-0.0136634127052029,0.0601718122675266,0.217610575534896,-0.00307951658787877,-0.161065025079504,-0.0706955020752092,-0.0403126071621205,-0.0179329169761517,0.0119214533226406,0.0316505310003089
137,-0.0240963737445226,-0.0334565576842869,0.0552354332951529,-0.00175187730990582,0.00188820940653489,-0.044701317718091,0.0707380282169627,0.0443287937197518,-0.0311627532065854,0.0652036019965553,-0.0307098916540659,0.0486425783036916,-0.0528541496347015,0.00481361283435151,0.250308402236155,0.0887772533080662,-0.00903304047504981,0.15103676510521,-0.0793250207038043,-0.0739500346646996,-0.0136806548457078,0.0590237461674347,0.21765743308221,-0.00710444976192876,-0.165476258169953,-0.0696444470270076,-0.0433394667886299,-0.0181801071307884,0.00806802598859357,0.0316762986263864
138,-0.0267206953246728,-0.0331581478827337,0.0548632326614742,0.000609403273152739,-0.000313062537293226,-0.0451010884846441,0.0723803947341512,0.0432210409292696,-0.0299632408445132,0.0639354317286533,-0.0288292601152861,0.0479799353232679,-0.0566411515156234,0.0049347263992736,0.248253951273762,0.0882324875279652,-0.00996286791093767,0.151673127587686,-0.0831940393517321,-0.0759219365101895,-0.0136157949483767,0.0577015393533999,0.217314836170585,-0.0110178496472733,-0.169968719237914,-0.0686374449586368,-0.0463333723535534,-0.0185036617784233,0.00408896644613673,0.0315623164966891
139,-0.0293642927732103,-0.0329065118930469,0.0544553518680827,0.00299870466792011,-0.00242758653295824,-0.0453440533269016,0.0739186644687018,0.0420821108288187,-0.0287380920495265,0.062576593096822,-0.026983999690301,0.047203513615059,-0.0604494737965484,0.0049601618999772,0.246094513327683,0.0876070246195685,-0.0111227519344728,0.152201009899064,-0.0867779063038517,-0.0778394739659905,-0.0134713748591311,0.0562037343738467,0.216577073959188,-0.0148169217564313,-0.174535713787918,-0.0676863315740061,-0.049284298631682,-0.0189063091609923,-1.55930637804633E-05,0.0313037961928573
140,-0.032020112144154,-0.0327003402774034,0.0540017555450343,0.00540114542405882,-0.00445265908491009,-0.0454437106566333,0.0753451645943509,0.0409125441835032,-0.027500440977036,0.0611282639478501,-0.0251816521501519,0.0463095700673945,-0.0642760975978253,0.00488796828293888,0.243841595655302,0.0868868411725462,-0.0125056697754627,0.152608021550726,-0.090075575024629,-0.0796887661867662,-0.0132508033916394,0.0545306097421589,0.215438330454475,-0.0185002723330914,-0.179169597210286,-0.0668018045076276,-0.0521835135348941,-0.0193905269278869,-0.00424452395096157,0.0308964923284154
141,-0.0346805202256264,-0.0325379604867352,0.0534936198819485,0.00780117953374946,-0.0063854151670312,-0.0454143668368596,0.0766529339468246,0.0397131183499898,-0.0262627071201394,0.0595918589768323,-0.0234294172500332,0.0452948968249819,-0.0681170345731488,0.00471641259782204,0.241505158718429,0.0860584000116191,-0.014102584845408,0.152882127342488,-0.0930882311707059,-0.0814561691843109,-0.0129583303101385,0.0526841978994059,0.213892872042911,-0.0220678031498646,-0.183861752694593,-0.0659934337901987,-0.0550236603212194,-0.0199584675296944,-0.00859561346949773,0.0303367784790642
142,-0.0373373593076311,-0.0324173877434408,0.052923442266457,0.0101827516242071,-0.0082228933496232,-0.0452710105459801,0.0778357716989727,0.0384848405653607,-0.0250365824509905,0.0579690097191454,-0.0217341196442452,0.0441568842094192,-0.0719673149004878,0.00444397827861486,0.239093402794436,0.0851088334306761,-0.015902588360033,0.153011801055645,-0.0958191982174791,-0.0831285175976432,-0.0125990100547331,0.0506682757340506,0.211935258296439,-0.0255205918202997,-0.188602592316616,-0.0652696885155763,-0.0577988174499982,-0.020611890563984,-0.0130654912480535,0.0296217164126955
143,-0.039982015448803,-0.0323363801757947,0.0522851232857725,0.0125294599441488,-0.00996211333506507,-0.0450291789939038,0.0788882727790775,0.0372289332218402,-0.0238330325507737,0.056261543933766,-0.0201021837848726,0.0428935748595418,-0.0758210028686139,0.00406936605940136,0.236612590684717,0.0840261202873718,-0.0178930717731259,0.152986170427501,-0.0982738192364072,-0.0846933583891943,-0.0121786560271417,0.0484883275218245,0.209560570826512,-0.0288607606470878,-0.193381581776476,-0.0646379774943206,-0.0605045354052062,-0.0213521035221617,-0.0176495723430855,0.0287491174417432
144,-0.0426054989371768,-0.0322924969616277,0.0515740201524664,0.0148247244645684,-0.0116001634756208,-0.0447048174685012,0.0798058494085554,0.0359468116016065,-0.0226623103923491,0.0544714648899868,-0.0185396168128438,0.0415037082407898,-0.0796712394210322,0.00359149764403529,0.234066909720408,0.0827992541137025,-0.0200599266702537,0.152795151204623,-0.100459317534005,-0.0861391722441147,-0.0117037863775022,0.046151480642662,0.206764654578372,-0.0320913370844635,-0.198187288636896,-0.0641047015110743,-0.0631378502072636,-0.0221799121927515,-0.0223420187073626,0.0277175948178418
145,-0.0451985353534251,-0.0322831581529947,0.0507869712668433,0.0170519573098256,-0.013134295621572,-0.0443141338097181,0.0805847384361336,0.0346400547188143,-0.0215339812324871,0.0526009310697523,-0.0170519992367031,0.0399867548886028,-0.0835103104361408,0.00300952212764117,0.231458375526266,0.0814183994541936,-0.022387768213454,0.152429568298211,-0.102384639147524,-0.0874555787848247,-0.0111815623180591,0.0436664149306499,0.203544365688915,-0.0352161088944347,-0.203007453290832,-0.0636753147007456,-0.0656972737264467,-0.0230955817558184,-0.0271357206248565,0.0265266062096882
146,-0.0477516654050787,-0.0323057048063009,0.049922292275058,0.0191947326890918,-0.0145620245038571,-0.0438734495036587,0.0812219944620344,0.0333103700657663,-0.0204569568984702,0.0506522367798496,-0.0156444829852257,0.0383429399756213,-0.0873297389796342,0.00232282504732355,0.228786779243278,0.0798750337593426,-0.0248601777537521,0.151881262319661,-0.104060280405248,-0.0886335221152235,-0.010619720045779,0.041043247009831,0.199897819883666,-0.0382394770247044,-0.207829081296151,-0.0633543925211667,-0.0681827612929452,-0.0240988093583592,-0.0320222992786197,0.0251764854493546
147,-0.0502553515118845,-0.0323574580358025,0.0489797446077065,0.0212369535132787,-0.0158812287972517,-0.0433990491579117,0.0817154690741918,0.0319595531860454,-0.0194395376180215,0.0486277941334145,-0.0143217962245976,0.0365732560199581,-0.0911203992685195,0.00153103982567303,0.226049679143523,0.0781620723407128,-0.0274599598515359,0.151143180058903,-0.10549810389817,-0.0896654336644862,-0.0100264973929896,0.0382933914545935,0.195824635363962,-0.0411663091314604,-0.2126385551688,-0.0631457038259927,-0.0705956574657487,-0.0251887086961054,-0.0369921311961334,0.0236684628989013
148,-0.0527000889892119,-0.032435775643034,0.0479604780719698,0.0231630119605225,-0.017090251037691,-0.0429070301612041,0.0820637768536124,0.0305894431001773,-0.0184894594431412,0.0465301168117018,-0.0130882541587322,0.0346794647768088,-0.0948726496397356,0.000634061269018992,0.2232424368075,0.0762739741350244,-0.030169408676618,0.150209447781602,-0.1067111462731,-0.0905453697958926,-0.00941055635143746,0.0354294010776836,0.191326164235153,-0.0440017965136704,-0.217421763240329,-0.0630522846284667,-0.0729386211715733,-0.0263638068499283,-0.0420343948636529,0.0220046739761327
149,-0.0550765196010223,-0.032538105049953,0.0468669496063099,0.0249579413948744,-0.018187993675335,-0.0424131543447527,0.0822662491395163,0.0292018746909878,-0.0176139452590858,0.0443618059585071,-0.0119477748904417,0.0326640885738854,-0.0985764814242544,-0.000367939302610978,0.220358297282323,0.0742068263237311,-0.0329705786071692,0.149075426558576,-0.10771342124518,-0.0912691221698003,-0.00878090263595497,0.0324647890790743,0.186405706748837,-0.0467513170197879,-0.222164242773342,-0.0630765112902225,-0.0752155317521731,-0.0276220533430005,-0.0471371393257644,0.0201881555833466
150,-0.0573755452382872,-0.0326620313778271,0.0457028207766131,0.0266075572471201,-0.0191740087236485,-0.0419327034496624,0.0823228768658213,0.027798629218373,-0.0168197573515894,0.042125538494218,-0.0109038993173419,0.0305303915585871,-0.102221680295157,-0.00147449778196582,0.21738851190454,0.071958406204976,-0.0358455538118233,0.147737749192463,-0.108519721142666,-0.0918342993911281,-0.00814680347061772,0.0294138361711228,0.181068702972053,-0.0494203062376533,-0.226851334200295,-0.0632201710637626,-0.077431377758942,-0.0289608411068735,-0.0522873740991749,0.0182228304029759
151,-0.0595884395229858,-0.0328053196641878,0.0444728369851171,0.0280985847300454,-0.0200485787013235,-0.0414803401651715,0.0822342440756032,0.026381384178104,-0.0161132495308909,0.0398240580661487,-0.00995981397272263,0.028282351517153,-0.105797996393113,-0.00268484038911478,0.214322501759042,0.0695282191075795,-0.0387767116799778,0.146194338659747,-0.109145420143119,-0.0922403790206455,-0.00751770479085465,0.0262913861157684,0.175322896946666,-0.0520141389907237,-0.231468343116263,-0.063484528155228,-0.0795921306021012,-0.0303770387794141,-0.0574711792435006,0.0161134792552427
152,-0.0617069552390774,-0.0329659503918194,0.0431826916695524,0.0294187715760433,-0.0208127868444259,-0.0410699764377511,0.0820014539752202,0.0249516637466771,-0.01550041688171,0.0374601687768888,-0.00911837569894194,0.0259246230982568,-0.109295319344178,-0.0039978667275499,0.211148059060388,0.0669175115620026,-0.0417469751561085,0.144444408326772,-0.109606282145102,-0.0924887295761817,-0.00690314905508513,0.0231126333558681,0.169178468952573,-0.0545380228469186,-0.236000706522578,-0.0638703837469454,-0.081704605391987,-0.0318670335127477,-0.062673833961686,0.0138657019501842
153,-0.0637234256437485,-0.0331421477099603,0.0418388789830647,0.0305569843424807,-0.0214685748774488,-0.0407146506627235,0.0816260495914593,0.0235107910630046,-0.0149869413237775,0.0350367317519572,-0.00838213705797241,0.0234624934200345,-0.112703854182434,-0.00541213333720149,0.207851583090967,0.0641292593912239,-0.0447400493272273,0.142488444513125,-0.109918275952185,-0.0925826026846559,-0.00631269484375477,0.019892906586341,0.16264813212653,-0.0569969050093425,-0.240434159790065,-0.0643781287177572,-0.0837763114962363,-0.0334267832507285,-0.0678799616653279,0.0114858673030127
154,-0.0656308579053155,-0.0333323999502317,0.040448538561011,0.0315032872169867,-0.0220187869625589,-0.0404264152600501,0.0811099312323952,0.0220598435860091,-0.0145782313254334,0.0325566645207326,-0.00775337143761483,0.0209018311547828,-0.116014294181803,-0.0069258382847571,0.204418346719463,0.0611681308457812,-0.0477406380000136,0.140328172254642,-0.110097400137743,-0.0925270960588246,-0.00575583938708139,0.0166474521869756,0.155747190400525,-0.059395393609906,-0.244754900887644,-0.0650077881139891,-0.0858152954741407,-0.035051877246398,-0.0730736890520851,0.00898105320979992
155,-0.067423017137269,-0.0335354722689514,0.0390192959959176,0.0322490026568259,-0.0224671987870733,-0.0402162360059969,0.0804552730183902,0.0205996127327878,-0.0142794543088641,0.030022943089784,-0.00723409689822468,0.0182490302647955,-0.119217986692243,-0.0085368073041722,0.200832788962867,0.0580404253727633,-0.0507346364768038,0.137966505355156,-0.110159519621538,-0.0923290884546836,-0.00524194510162037,0.0133912214269212,0.148493555495523,-0.0617376940757869,-0.248949748597711,-0.0657590567461092,-0.0878299791345686,-0.0367376034317321,-0.078238816417737,0.00635897789138122
156,-0.0690944997399063,-0.0337504114742698,0.0375591025566789,0.0327867535997652,-0.0228185310929448,-0.0400939043438888,0.0796644407409989,0.0191305689431854,-0.0140955605142915,0.0274386064860692,-0.00682609791802645,0.0155109496029279,-0.122307088265879,-0.0102424819649772,0.197078828557402,0.0547539890689626,-0.0537092972880868,0.135407482008951,-0.110120215634889,-0.0919971482086639,-0.00478017112780741,0.0101386652535336,0.140907721524336,-0.0640275608922338,-0.253006291701378,-0.0666313256072562,-0.0898289954946888,-0.0384790211247038,-0.0833589961745528,0.00362792359902666
157,-0.070640795012055,-0.0339765433126887,0.0360760775062789,0.0331104873753774,-0.0230784472930651,-0.0400679637312144,0.0787399132262988,0.01765283323247,-0.0140312973460515,0.0248067634415233,-0.00653094432874881,0.0126948495915582,-0.125274705643768,-0.0120399103072857,0.193140193080569,0.051318108313415,-0.0566533662526023,0.13265618742683,-0.10999465039225,-0.0915414173518612,-0.00437941074542666,0.00690354029989661,0.133012696608061,-0.0662682647499483,-0.256913026447505,-0.0676236991220749,-0.0918210253929706,-0.0402710374620866,-0.0884179163758447,0.000796654229106796
158,-0.0720583342479297,-0.0342134626879887,0.0345783561026855,0.0332154818144631,-0.0232535351525289,-0.0401456508978978,0.0776842092314737,0.0161661561846396,-0.0140912135005122,0.0221306007844483,-0.00635000688035662,0.00980832715511081,-0.128115019544711,-0.01392574034342,0.18900075783069,0.0477433834926656,-0.0595571869017666,0.12971866501297,-0.109797447434079,-0.0909734736470781,-0.00404823540233337,0.00369872949168715,0.124833891780695,-0.0684625747469534,-0.260659480000331,-0.0687350035305435,-0.0938146374328296,-0.0421084858808793,-0.0933994859546509,-0.00212567158902547
159,-0.0733445267826894,-0.0344610174605882,0.0330739460240407,0.03309833439151,-0.023351272833827,-0.0403328526928766,0.076499821698891,0.0146699052061143,-0.014279652469362,0.0194133930023971,-0.00628446902692982,0.00685925000802193,-0.130823388641623,-0.0158962167881686,0.184644888433665,0.0440415851110014,-0.0624127720076888,0.126601817724789,-0.109542588268397,-0.0903061731904536,-0.00379484592587208,0.000536080311848602,0.116398968331349,-0.0706127550189161,-0.264236317972422,-0.0699637869852355,-0.095818133805563,-0.0439862049380911,-0.0982880183695962,-0.00512959029016341
160,-0.0744977826910371,-0.0347192866221154,0.0315705945599749,0.0327569355346925,-0.0233799799082745,-0.0406340789849435,0.0751891609421477,0.0131630607053694,-0.0146007353178177,0.0166585123524434,-0.00633533467855281,0.00385569129795271,-0.133396431614214,-0.0179471813424663,0.180057781019683,0.0402254949057693,-0.0652138416759401,0.123313301312361,-0.109243325623741,-0.0895534764609899,-0.00362703129984301,-0.00257373660104027,0.107737645595722,-0.0727205749038719,-0.267635434575293,-0.0713083121859807,-0.0978394043669952,-0.0458991157598842,-0.103068410408389,-0.00820542437687262
161,-0.0755175220736308,-0.0349885537547236,0.0300756684760772,0.0321904274961321,-0.0233487542166738,-0.0410524518615188,0.0737545080559329,0.0116442216908001,-0.0150583329519606,0.0138694388248282,-0.0065034318107277,0.000805865480872538,-0.135832085714626,-0.0200740768170123,0.175225793804018,0.0363087348548807,-0.0679558281862927,0.119861411184934,-0.108912113339498,-0.0887302608870209,-0.00355213518768301,-0.00562134627787078,0.0988814720381652,-0.0747873315128246,-0.27085002434482,-0.0727665425882762,-0.0998857911269855,-0.0478422964486884,-0.107726313024152,-0.0113433729559633
162,-0.0764041710844592,-0.0352692767648113,0.0285960480081843,0.0313991503903241,-0.0232673957150563,-0.0415897111386722,0.072197979537725,0.0101116210889469,-0.0156560284085822,0.0110497692216396,-0.00678941195894474,-0.00228193383097886,-0.138129640859725,-0.0222719553407443,0.170136764022236,0.0323055871630063,-0.0706358484672022,0.116254964695539,-0.108560552663516,-0.0878521231277015,-0.00357703017119321,-0.00859876389680076,0.0898635632411744,-0.0768138833818996,-0.273874634810745,-0.0743361233971164,-0.101963965061238,-0.0498110518520167,-0.112248291267655,-0.0145336001813629
163,-0.0771591450576331,-0.0355620549251792,0.0271380359946311,0.0303845771805881,-0.023146318661454,-0.042246235960821,0.0705215037943348,0.00856315088001225,-0.0163970700194173,0.00820322459901037,-0.00719374574871885,-0.00539939344665545,-0.140289748854307,-0.0245354908521422,0.164780304414239,0.0282308084416819,-0.0732526457541482,0.112503180672446,-0.108199354501727,-0.086935174339525,-0.003708099460992,-0.0114994636416163,0.080718311118965,-0.0788006937283264,-0.276705199870512,-0.0760143586932437,-0.104079816878052,-0.0518009772089441,-0.116621970626081,-0.017766320067099
164,-0.0777848192836858,-0.0358675942688048,0.0257072827217781,0.0291492395226464,-0.0229964536828584,-0.0430210820329872,0.0687268098882454,0.00699639692934419,-0.0172843166126893,0.00533365534314435,-0.00771671471909166,-0.00853823713357351,-0.14231440793688,-0.0268589960178618,0.159148073823098,0.0240994413565971,-0.0758065025915649,0.108615558057532,-0.107838316968995,-0.0859958317131044,-0.00395122562753235,-0.0143184211814872,0.0714810692761169,-0.080747881722908,-0.279339053991005,-0.0777981861322513,-0.106238363076313,-0.0538080143373264,-0.120836167382713,-0.0210318762668983
165,-0.0782844881630186,-0.036186672353475,0.0243087266513231,0.0276966464614883,-0.0228291414048555,-0.0439120337963476,0.0668154285639363,0.00540868316495849,-0.0183201762098538,0.00244504320899335,-0.00835839978989773,-0.011690278773828,-0.144206923407637,-0.0292364436629579,0.153234016968111,0.0199266270047389,-0.0782991278794122,0.104601755532049,-0.10748631742218,-0.0850506095254495,-0.00431178570741998,-0.0170521295286954,0.0621878199247194,-0.0826552801246598,-0.281774927693157,-0.0796841507075767,-0.108443668322432,-0.0558284992027746,-0.124881000966869,-0.0243208155900614
166,-0.0786623136267719,-0.0365201033629764,0.0229465508249673,0.0260311980225647,-0.0226560194285111,-0.0449156706333748,0.0647887052879576,0.00379712451632314,-0.019506539944109,-0.000458500254993131,-0.0091186668003861,-0.0148474719113158,-0.145971845631065,-0.0316614927304271,0.147034569055803,0.0157274212074997,-0.08073352112806,0.100471474014175,-0.107151318013807,-0.0841159128603549,-0.00479465186575972,-0.0196985885390301,0.0528748281417518,-0.0845224975954861,-0.284012925071397,-0.081668379076238,-0.110698784859585,-0.0578591999136746,-0.128747986661899,-0.0276239542316983
167,-0.0789232638616943,-0.0368687044318644,0.0216241544094557,0.0241580957405232,-0.0224889045001594,-0.0460274459768225,0.0626478247428597,0.00215868779425318,-0.0208447131584759,-0.00337273934494325,-0.00999714960987429,-0.0180019555565544,-0.147614887189539,-0.0341275187157884,0.14054882159081,0.0115166177657734,-0.0831138174617944,0.0962343438929585,-0.10684038368616,-0.0832078370079393,-0.00540419664748371,-0.0222572688104107,0.0435782894852891,-0.0863489840190985,-0.286054484361119,-0.0837465559123492,-0.11300570934849,-0.0598973444088969,-0.132430107470225,-0.030932435931071
168,-0.0790730435033233,-0.0372332639820831,0.0203441385588103,0.0220832521273859,-0.0223396717414711,-0.0472417780023725,0.0603938459385861,0.000490259462967331,-0.0223353458239179,-0.00629332419602692,-0.0109932313009156,-0.0211460961936103,-0.14914282138755,-0.036627648445866,0.133778646518942,0.00730858152162768,-0.0854451171975311,0.091899818813677,-0.106559711430577,-0.0823419753684075,-0.00614430173458105,-0.024729051199754,0.0343339770906876,-0.0881340971831235,-0.287902322792743,-0.0859139036803613,-0.115365357230663,-0.0619406373398973,-0.135921864384154,-0.0342377815242565
169,-0.0791180165682766,-0.0376145127461895,0.0191083055360303,0.0198132009969334,-0.0222201327921079,-0.0485521504135435,0.0580277468505877,-0.00121128095903244,-0.0239783645419987,-0.00921580525175588,-0.0121060240629199,-0.0242725259928928,-0.150563364659853,-0.0391547989909415,0.126728776652228,0.00311709381091475,-0.0877333040194782,0.0874770777450483,-0.106314669564452,-0.0815332384599997,-0.00701836904686525,-0.0271161436072412,0.0251768943367423,-0.0898771692409415,-0.289560367160878,-0.0881651671112378,-0.117777554408274,-0.0639872658907087,-0.13921930476394,-0.0375319296148224
170,-0.0790651234787604,-0.0380130980288027,0.0179176698576018,0.0173550104338332,-0.0221419146684871,-0.0499512216850837,0.0555504772674383,-0.00294898332471894,-0.0257729084537984,-0.0121356521416915,-0.0133343483602978,-0.027374177275169,-0.151885045713583,-0.0417017204174621,0.119406841165077,-0.00104478742389531,-0.0899848558730328,0.0829749369367212,-0.106109845727705,-0.0807956863725834,-0.00802933298582491,-0.0294219770625185,0.0161409390091048,-0.0915775714454845,-0.291033671692655,-0.0904946035249445,-0.120241045755192,-0.0660358945226132,-0.142320028964276,-0.0408072683367772
171,-0.0789217935878009,-0.0384295616298353,0.016772480102412,0.0147162000271377,-0.0221163410630201,-0.0514309410223947,0.0529630183383056,-0.004725746728831,-0.0277172713615006,-0.0150482767178563,-0.0146767120052373,-0.0304443132972698,-0.153117064429767,-0.0442610420064611,0.11182335578878,-0.00516485095513505,-0.0922066527142199,0.0784017732163205,-0.105949102269219,-0.0801423767224477,-0.00917967262756371,-0.0316510834814614,0.00725858459669268,-0.0932347757375464,-0.292328324921327,-0.0928959799768387,-0.122753519716899,-0.0680856488704394,-0.145223175762971,-0.0440566584167301
172,-0.0786958546400541,-0.0388643217241629,0.0156722499605089,0.0119046637825641,-0.0221543177021353,-0.052982669222912,0.0502664471581177,-0.00654423856654588,-0.0298088522784102,-0.017949059829715,-0.0161312897626536,-0.0334765554406796,-0.154269143661072,-0.0468253214829398,0.103991668149056,-0.00923183752368144,-0.0944057851776075,0.0737654598822422,-0.105835637678939,-0.0795852298566061,-0.0104714227233148,-0.0338089577388554,-0.00143941606003308,-0.0948484118742299,-0.293451347360714,-0.095362578018899,-0.125311648027074,-0.0701360892502506,-0.147929387519422,-0.0472734479477951
173,-0.0783954405993294,-0.039317658866302,0.0146157970816193,0.00892859989280891,-0.0222662232521069,-0.0545973025920068,0.0474620046201465,-0.00840681460775799,-0.0320441164576405,-0.0208333812694111,-0.0176959041152288,-0.0364649068832985,-0.155351377090572,-0.0493870967257728,0.0959278594738224,-0.0132355259548739,-0.0965893680695517,0.0690733162264872,-0.105772052719833,-0.0791349127322596,-0.0119061824633792,-0.0359019069173836,-0.00992430008589572,-0.0964183188985947,-0.294410581833687,-0.0978872066639814,-0.127911139368718,-0.0721871744595915,-0.150440756317525,-0.0504514794594974
174,-0.0780288992406782,-0.0397897061688977,0.0136012883106867,0.00579644828786701,-0.0224618071130403,-0.0562653980697287,0.0445511647042085,-0.0103154419498268,-0.0344185687133987,-0.0236966521992124,-0.0193680078108574,-0.0394037728253467,-0.156374076264196,-0.0519389393579683,0.0876506046358422,-0.017166799512418,-0.0987643623591489,0.0643320714766445,-0.105760419922853,-0.0788007425647593,-0.0134851210987027,-0.0379368897443701,-0.0181695328134565,-0.0979445898803217,-0.295214578334141,-0.100462223926655,-0.130546805639161,-0.0742392167574351,-0.152760752623022,-0.0535850900017205
175,-0.0776047008442291,-0.0402804435938693,0.0126262899586164,0.00251683661635469,-0.0227500952774795,-0.057977297762505,0.0415357033532474,-0.0122716266957458,-0.0369267405492352,-0.0265343492844812,-0.0211446688034712,-0.042287977325837,-0.15734761978379,-0.0544735095547796,0.0791809931801913,-0.0210176923106305,-0.100937409031762,0.0595478436821961,-0.105802355125248,-0.0785906110009586,-0.0152089796875935,-0.039921349314522,-0.0261510116453629,-0.0994276090008969,-0.295872475297536,-0.103079567091605,-0.133212639341849,-0.0762928290975888,-0.154894138207231,-0.0566691050552861
176,-0.0771313492434919,-0.0407896961981829,0.0116878218415984,-0.000901464967732733,-0.0231393052556043,-0.0597232511414842,0.0384177651186406,-0.0142763481352789,-0.0395621922554034,-0.0293420496975959,-0.0230225581802121,-0.0451127767891487,-0.158282307457531,-0.056983611353802,0.0705423146142204,-0.0247814160326326,-0.103114677796426,0.0547261337903835,-0.105899089757091,-0.0785109292395755,-0.0170780684360865,-0.0418630422211303,-0.0338472330314821,-0.100868080217071,-0.296393879120789,-0.105730791634271,-0.13590190052359,-0.0783488658528435,-0.156846865258776,-0.0596988271383748
177,-0.0766172963770743,-0.0413171360949504,0.01078241392361,-0.00444958011347179,-0.0236367708889006,-0.0614935332621217,0.03519992582028,-0.016330001084006,-0.0423175307457466,-0.0321154661290581,-0.0249979416415418,-0.0478738701241822,-0.159188221960717,-0.0594622477088301,0.0617598118012346,-0.0284523675972707,-0.105301733207824,0.0498718348623389,-0.106051542612649,-0.0785665941912073,-0.0190922593218869,-0.0437698671832319,-0.0412394208958948,-0.102267046913932,-0.296788743709443,-0.108407118493389,-0.138607211603959,-0.0804083584041292,-0.158625963725566,-0.0626700200000501
178,-0.0760708613743788,-0.0418622878261073,0.00990616450753293,-0.00811855384492567,-0.0242488776937985,-0.0632785574739598,0.0318852495657989,-0.0184323478621127,-0.0451844434885106,-0.0348504809390024,-0.0270666750640346,-0.0505674055828963,-0.160075100274243,-0.061902674500495,0.0528604067897684,-0.0320261187681103,-0.107503420286987,0.0449892560723908,-0.106260389883225,-0.0787609754529188,-0.0212509739268876,-0.0456496961668301,-0.0483116156997832,-0.103625902153067,-0.297067251740313,-0.11109948917746,-0.141320658403364,-0.0824724470762247,-0.160239419005665,-0.0655788892844164
179,-0.075500155077479,-0.0424245367950041,0.00905479903598425,-0.0118993718196948,-0.0249810092011133,-0.0650689812223901,0.0284773385992109,-0.0205824811761408,-0.0481537484619308,-0.0375431786035242,-0.0292242046264245,-0.0531899842717577,-0.160952216851413,-0.0642984527042624,0.0438724038164671,-0.035499388994411,-0.109723771215179,0.0400821608151966,-0.106526132278232,-0.0790959225705252,-0.0235531666456366,-0.0475102108600059,-0.0550507241603084,-0.104946389329347,-0.297239699213763,-0.113798627983967,-0.144033895666279,-0.0845423109764082,-0.161696042143123,-0.0684220605169421
180,-0.0749130107672243,-0.0430031403743049,0.00822372868001681,-0.0157829719343853,-0.0258375045903653,-0.0668558036934514,0.024980374599026,-0.0227787989097654,-0.0512154596515231,-0.0401898756546715,-0.0314655719165482,-0.0557386603197813,-0.161828280125542,-0.066643497922409,0.0348251745292332,-0.0388700030106226,-0.111965934146911,0.0351538179220042,-0.106849158123308,-0.0795717917800448,-0.0259973036805664,-0.0493587471806138,-0.0614465304380413,-0.10623059326726,-0.297316384734387,-0.116495110428341,-0.146738255394029,-0.0866190973325027,-0.163005334688268,-0.0711965552138416
181,-0.0743169217254296,-0.0435972412845135,0.00740810800974704,-0.0197602491510488,-0.0268216277630803,-0.0686304542169651,0.0213991502174495,-0.0250189915426187,-0.0543588672177979,-0.0427871473804099,-0.0337854243592708,-0.0582109376819371,-0.162711343619398,-0.0689321265120915,0.0257488306767806,-0.0421368348952831,-0.114232124655054,0.0302070646671713,-0.107229801400169,-0.0801874911618305,-0.0285813384725816,-0.0512021502773717,-0.0674916703356754,-0.10748092200839,-0.297307504806127,-0.119179436825481,-0.149424856343786,-0.0887038519302525,-0.164177350355325,-0.0738997658513691
182,-0.0737189861298316,-0.044205882829177,0.00660289115389056,-0.0238220546029307,-0.0279355478575259,-0.0703848705212761,0.0177390898445642,-0.0273000426091151,-0.0575726311138935,-0.045331850641218,-0.0361780312129151,-0.0606047635590428,-0.163608732559877,-0.0711590975860885,0.0166738895938823,-0.0452997404033741,-0.11652359979787,0.0252443799397925,-0.107668393783475,-0.0809405429092454,-0.0313026844403053,-0.0530466422365385,-0.0731815707019002,-0.10870007975846,-0.29722305626186,-0.12184210984434,-0.152084713113614,-0.0907974522156737,-0.165222555556244,-0.0765294303588875
183,-0.0731258596466112,-0.0448280255726534,0.00580288596392001,-0.0279591901862321,-0.0291803310795672,-0.0721115661229612,0.0140062587937021,-0.0296182422928596,-0.0608448866316021,-0.0478211422721827,-0.0386373052742723,-0.0629185184277072,-0.1645269865443,-0.0733196502243975,0.00763093777822771,-0.0483594794424248,-0.118840654297007,0.0202679656752605,-0.108165309835112,-0.0818271612100954,-0.0341581861047238,-0.0548977044327157,-0.0785143567934893,-0.109891031668054,-0.297072746772834,-0.124473714767917,-0.154708843314376,-0.0929005445556071,-0.166151690810379,-0.0790836067210421
184,-0.0725437159581007,-0.0454625650539122,0.0050028058024681,-0.0321623999511742,-0.030555943610392,-0.0738036863347636,0.0102073603351144,-0.0319692139376016,-0.0641633601061369,-0.0502524926708832,-0.0411568303107794,-0.0651510026992054,-0.165471818454904,-0.0754095353108709,-0.00134970228714603,-0.0513176305688236,-0.121182637847916,0.0152798344006334,-0.1087210046352,-0.082842344064255,-0.0371440898495189,-0.0567599761687045,-0.0834907308064004,-0.111056961308672,-0.296865914204327,-0.127065001136752,-0.157288371425766,-0.0950134870399104,-0.166975634926522,-0.0815606481925414
185,-0.0719782153414785,-0.0461083501438711,0.00419731867450236,-0.0364223596662382,-0.0320612652513709,-0.0754550525813285,0.00634972025167253,-0.0343479529535446,-0.0675154928152805,-0.0526236943173676,-0.0437298941046429,-0.067301420066179,-0.166448089481972,-0.0774250414964568,-0.0102382971474123,-0.0541764993455055,-0.123547992158688,0.0102819005581571,-0.109336043260273,-0.0839799772153576,-0.0402560157024997,-0.058637170940046,-0.0881138251371937,-0.11220122186905,-0.296611455404714,-0.129606964432018,-0.159814628044423,-0.0971362990637333,-0.167705273728389,-0.0839591795452365
186,-0.0714344812980231,-0.0467642016729014,0.00338109351387504,-0.0407296659424295,-0.0336941133785257,-0.0770601949207129,0.00244125884812515,-0.0367488773178313,-0.0708885709648917,-0.0549328651268063,-0.0463495268505088,-0.0693693576509267,-0.167459799799373,-0.079363014886676,-0.0190060146169781,-0.0569390223350196,-0.125934305937597,0.00527607314402325,-0.110011121660836,-0.0852329482582738,-0.0434889316125694,-0.0605320113382934,-0.0923890341773989,-0.113327282230797,-0.296317764839184,-0.132090926461901,-0.162279243356246,-0.0992686187519367,-0.168351374948809,-0.08627807468225
187,-0.0709170851218729,-0.0474289309778869,0.00254884352747367,-0.045074826271164,-0.0354512767027778,-0.0786143728750446,-0.00150954939157989,-0.0391658886181675,-0.0742698595563211,-0.0571784466906083,-0.0490085445000429,-0.0713547631368935,-0.168510094144038,-0.0812208721537378,-0.0276252190043331,-0.0596086684126324,-0.128338385730505,0.000264347143040574,-0.110747078641371,-0.0865932688977128,-0.0468371317335841,-0.0624461832760324,-0.0963238285776781,-0.11443866918379,-0.295992683309608,-0.134508613149326,-0.164674233801966,-0.101409669085485,-0.16892447075405,-0.0885164358689296
188,-0.0704300381923904,-0.0481013580432026,0.0016953665846237,-0.0494482512540676,-0.0373285582657056,-0.0801135848708078,-0.00549372804296478,-0.0415924423746364,-0.0776467378784485,-0.0593591976104125,-0.0516995964992599,-0.0732579191418371,-0.169601281287216,-0.0829966068818928,-0.0360697454809239,-0.0621893389816911,-0.130756340252677,-0.00475110874011679,-0.111544898803983,-0.0880522032773676,-0.0502942202075934,-0.0643803098789758,-0.0999275559515925,-0.115538907108159,-0.29564345684083,-0.136852228477885,-0.166992081053416,-0.103558233368651,-0.16943474918081,-0.0906735747472663
189,-0.0699767916754823,-0.0487803289362024,0.000815582720366705,-0.0538402501917636,-0.0393208270421166,-0.081554566772929,-0.00950186216657545,-0.0440216262003307,-0.0810068343551318,-0.0614741822647023,-0.0544152172246037,-0.0750794151714931,-0.170734866153413,-0.0846887890674171,-0.0443151501863238,-0.0646852685656836,-0.133183675670443,-0.00976787045415874,-0.112405706480427,-0.0896004002747057,-0.0538531018644462,-0.0663339450494309,-0.103211231929517,-0.116631456480038,-0.295276705662653,-0.139114523433733,-0.169225802575466,-0.105712640444265,-0.169891955577773,-0.0927489952220157
190,-0.0695602432272151,-0.0494647322648421,-9.5431103324329E-05,-0.0582410310586283,-0.0414220774685954,-0.0829347801626803,-0.0135241719724136,-0.0464462442281274,-0.0843381585062959,-0.063522755464504,-0.0571478802991386,-0.0768201175699467,-0.171911593145401,-0.0862965578111098,-0.0523389331168032,-0.0671009271438573,-0.13561539916913,-0.0147831853056594,-0.113330750843854,-0.0912280276651256,-0.0575059811247487,-0.0683055863654831,-0.106187325333007,-0.117719652552871,-0.2948984030774,-0.141288858882347,-0.171369013211793,-0.107870759830655,-0.170305304944558,-0.0947423782365592
191,-0.069182750208748,-0.0501535144130346,-0.00104240876637793,-0.0626407057283097,-0.0436254961700191,-0.0842523911539162,-0.0175505955553218,-0.048858906139152,-0.0876292278466575,-0.0655045435491843,-0.0598900548677454,-0.0784811379508038,-0.173131499072727,-0.0878196073600038,-0.0601207313200215,-0.0694409254926961,-0.138046128095213,-0.0197939089773788,-0.114321382558557,-0.0929249061019408,-0.0612443702137852,-0.0702927066470242,-0.108869541031125,-0.118806645526297,-0.29451386387613,-0.143369261437998,-0.173415977397472,-0.110030006726625,-0.170683405856952,-0.0966535683978789
192,-0.0688461488464403,-0.0508456933385783,-0.00202986501962239,-0.0670293011362246,-0.0459235351132652,-0.0855062406629896,-0.0215708793357253,-0.051252119077973,-0.0908691876489336,-0.0674194225439978,-0.0626342628352682,-0.0800638006458102,-0.174393973958554,-0.0892581667740079,-0.067642480414147,-0.0717099246940375,-0.140470201979961,-0.024796454539092,-0.115379022490415,-0.0946806409359682,-0.0650591075728461,-0.0722918032001564,-0.11127260377563,-0.119895343443275,-0.294127741853161,-0.145350471518289,-0.175361651762936,-0.112187356617237,-0.171034196461697,-0.0984825623652003
193,-0.0685517787069319,-0.0515403707492736,-0.00306206745917665,-0.071396776874759,-0.0483079903791848,-0.0866958071436469,-0.0255746746668114,-0.0536183807296935,-0.0940479216363275,-0.0692674940476394,-0.0653731360270916,-0.0815696097401545,-0.175697827917259,-0.0906129736095167,-0.0748885429635373,-0.0739125508699351,-0.142881794834287,-0.029786754778663,-0.116505123159398,-0.0964847500096768,-0.0689403871005681,-0.0742984634531152,-0.113412046003742,-0.120988358957161,-0.293744035868911,-0.147227982923207,-0.177201718048131,-0.114339369019145,-0.171364892820458,-0.100229498886567
194,-0.0683005118061857,-0.0522367425051946,-0.00414301010233594,-0.0757330495181985,-0.0507700857110706,-0.0878211628690241,-0.0295516389218936,-0.0559502718636753,-0.0971561518393697,-0.0710490595417858,-0.0680994722180116,-0.083000216273344,-0.177041362254508,-0.0918852421221638,-0.0818458027712408,-0.076053316101283,-0.145275025243303,-0.0347602387979159,-0.117701123765367,-0.0983267857037538,-0.0728777985798628,-0.0763074454273601,-0.115304002257246,-0.122087960989019,-0.293366103825716,-0.148998073434656,-0.178932606388891,-0.116482219733732,-0.171681949684182,-0.101894650350783
195,-0.0680927856357782,-0.0529341071289323,-0.00527638821002046,-0.0800280237711634,-0.0533005599710165,-0.0888829248889666,-0.0334915392565164,-0.0582405467155552,-0.10018552605149,-0.0727645938175159,-0.0708062889907284,-0.0843573861701214,-0.178422442944031,-0.0930766265912156,-0.0885037246844454,-0.0781365463784003,-0.147644061976939,-0.0397118234179622,-0.118968399756701,-0.100196449684939,-0.0768603793545303,-0.0783127712539612,-0.116965012506051,-0.123196032157823,-0.292996683850126,-0.150657826094811,-0.180551509167551,-0.118611740831209,-0.171991033589624,-0.10347841571617
196,-0.0679286393701808,-0.053631872340981,-0.0064655740095044,-0.0842716303305031,-0.0558897576148656,-0.08988220181316,-0.0373843571522186,-0.0604822196802581,-0.103128691542472,-0.0744147181980861,-0.0734868744267433,-0.0856429694281159,-0.179838574681637,-0.0941891804552404,-0.094854380043566,-0.0801663173146603,-0.149983223062366,-0.0446359195373693,-0.120308208035433,-0.102083698998122,-0.0808766770213481,-0.0803078317535866,-0.11841183629372,-0.124314032718827,-0.292637921918373,-0.152205140985884,-0.182056385735427,-0.120723467469172,-0.172297007992345,-0.104981314678838
197,-0.0678077525154148,-0.0543295595744675,-0.0077135930001798,-0.0884538701503822,-0.0585277212813228,-0.0908205375701342,-0.0412203917975287,-0.062668646919394,-0.105979353935492,-0.076000174206322,-0.0761348336965116,-0.0868588710302966,-0.181286973806268,-0.0952253120198486,-0.100892438428093,-0.0821463982272092,-0.152287066527457,-0.0495264531979395,-0.121721629000569,-0.103978842357031,-0.0849148226051324,-0.0822854999521529,-0.119661279252785,-0.125442971594672,-0.292291405118905,-0.153638737496109,-0.183445958416239,-0.122812690553522,-0.172603929988032,-0.106403982947787
198,-0.0677294852713986,-0.0550268064622749,-0.00902310057438457,-0.0925648646076537,-0.0612042855802889,-0.0916998532705054,-0.0449903603519493,-0.0647936016411769,-0.1087323204178,-0.077521798280055,-0.0787441306997304,-0.0880070239748669,-0.182764638507142,-0.0961877375514129,-0.10661512685104,-0.0840802050512439,-0.15455047131462,-0.0543769007486413,-0.123209506720715,-0.105872625709812,-0.0889626133930414,-0.084238251305193,-0.12073003317897,-0.126583384934873,-0.291958199716721,-0.154958147212908,-0.184719700287412,-0.124874514176433,-0.172915058028513,-0.107747168498574
199,-0.0676929199059405,-0.0557233673300895,-0.0103963587540382,-0.0965949108831537,-0.0639091711587861,-0.0925223882614648,-0.0486854931746353,-0.0668513419835665,-0.111383526732547,-0.078980498082258,-0.0813091240092034,-0.0890893647284094,-0.184268414900486,-0.0970794326042804,-0.112022158017948,-0.0859707624066651,-0.156768707172952,-0.0591803371671065,-0.124772388595637,-0.107756306382078,-0.0930076043284277,-0.0861582883517367,-0.121634530515177,-0.127735322495882,-0.291638893168284,-0.156163697730944,-0.185877815311665,-0.126903916713471,-0.173232869911813,-0.109011728678895
200,-0.0676969024756507,-0.0564191117701259,-0.0118352129307264,-0.100534541707554,-0.0666320781200581,-0.0932906414003996,-0.0522976221829765,-0.068836670615282,-0.113930047684281,-0.0803772308850725,-0.0838245964926449,-0.0901078113160923,-0.185795057752641,-0.0979035824423362,-0.117115629687144,-0.0878206749799353,-0.158937492655277,-0.0639294963054811,-0.126410465910676,-0.109621715324716,-0.0970372066135935,-0.088037667510764,-0.122390813785231,-0.128898341997364,-0.291333639232392,-0.157256487797189,-0.186921211455235,-0.128895814429141,-0.173559090217641,-0.110198628036876
201,-0.0677400842757351,-0.0571140214106164,-0.0133410686001762,-0.104374588471122,-0.0693627778737746,-0.0940073135008149,-0.0558192606360134,-0.070744985358613,-0.116370091177074,-0.081712984429846,-0.0862857781264275,-0.0910642441720911,-0.187341284841689,-0.0986635324087128,-0.121899897539139,-0.0896321082228057,-0.161053040666472,-0.0686168415758406,-0.128123516704563,-0.111461307212576,-0.101038791955534,-0.0898684257668427,-0.123014420238437,-0.130071511480745,-0.291042205330933,-0.158238354335316,-0.187851467482352,-0.130845126426605,-0.173894726270943,-0.111308936736066
202,-0.0678209624541768,-0.0578081850332798,-0.0149148681990826,-0.108106246568548,-0.072091202504978,-0.0946752518158235,-0.0592436728093571,-0.0725723203272241,-0.118702976086256,-0.0829887605799191,-0.0886883616734859,-0.0919604897898112,-0.188903824180077,-0.0993627390704714,-0.126381424281234,-0.0914067782077015,-0.163112091322126,-0.0732346453805398,-0.129910852356723,-0.113268198349894,-0.104999800719408,-0.091642705063029,-0.12352028172065,-0.131253419572085,-0.290764021333121,-0.15911183199661,-0.188670794158511,-0.132746839782955,-0.174240111646435,-0.112343829411196
203,-0.0679379192837042,-0.0585017922222465,-0.0165570682789714,-0.111721141746562,-0.074807530769093,-0.0952973973260045,-0.0625649322360613,-0.0743153772568982,-0.120929094537161,-0.084205561991111,-0.0910285110726029,-0.0927983071392523,-0.190479453559028,-0.100004722919256,-0.130568607976456,-0.0931459503224014,-0.165111932174945,-0.0777750754250634,-0.131771269251878,-0.115036192537315,-0.108907852139089,-0.0933528723255923,-0.12392263957537,-0.132442193431311,-0.290498228966851,-0.159880105973494,-0.189381990627797,-0.134596073736498,-0.174594956175937,-0.113304584307691
204,-0.0680892596448424,-0.0591951257506198,-0.0182676173828483,-0.115211396147088,-0.0775022698521283,-0.0958767354921179,-0.0657779674252594,-0.0759715468836805,-0.123049859423684,-0.0853643819292474,-0.0933028625740332,-0.0935793767600923,-0.192065032114784,-0.1005930233458,-0.134471592792657,-0.0948504463400136,-0.167050406144473,-0.0822302859262884,-0.133703006796288,-0.116759795242698,-0.112750854677082,-0.0949916331844292,-0.124234974197679,-0.133635524052469,-0.290243731100256,-0.160546958884742,-0.189988396751714,-0.136388141836704,-0.174958401387382,-0.114192582537899
