,0,1,2,3,4,5,6,7,8,9,10,11,12,13,14,15,16,17,18,19,20,21,22,23,24,25,26,27,28,29
0,0.00085513584765476,0.0118949008776238,-0.00060189585048194,-0.00152721732309507,0.000353787784246718,-0.0084342152893389,0.00290712179486711,0.0033633559785268,-0.00107508334006296,0.00703212411884035,0.000256504490098049,0.000249400621833393,-0.000292168994203026,0.0117366220152241,-0.00266042377139724,0.00312995721995161,-0.000828160312745656,-0.000988726784768876,0.00100670050474532,0.00468815776003666,0.00012463540150084,0.00290776278171378,-0.00139598498714042,0.00759777928785597,0.00226978804058519,-0.000147132760634637,0.00170251776642408,-0.000458169517999495,0.000568821199045845,0.00527291738308994
1,0.000899867453101283,0.0123993803198803,-0.00059007996316768,-0.0014740682164537,0.000293390003897294,-0.00859613811311862,0.00343168073346621,0.0038672305893676,-0.00108389662640908,0.00708852980561552,0.000113375222457634,0.00118326560826883,-0.000258939803919992,0.0119894509306861,-0.00266368902795952,0.00302972964831215,-0.000758605812327983,-0.000950531948991949,0.00101361617064652,0.00459440321116162,0.000109885578119591,0.00306986589994544,-0.00141763135837482,0.00783895443948014,0.00232000714421003,-1.65628015493706E-05,0.00161438006828926,-0.000462667880774093,0.00059297864150776,0.00514107924875955
2,0.000946195912400003,0.012894582299048,-0.000577870342210785,-0.00141259198584142,0.000233968103426726,-0.0087536406419194,0.00395363673412842,0.0043698684364545,-0.00109410891398041,0.00713623525181844,-2.23385019435458E-05,0.00213087919418268,-0.000224242326508701,0.0122458356347172,-0.00266633073325134,0.00292298319999335,-0.000688327557798873,-0.000912789125249422,0.00102086418102451,0.00449386980804381,9.40416704569363E-05,0.00322951458358769,-0.0014384910283716,0.00808563788867802,0.00236915559638896,0.000117986259388667,0.0015259830640081,-0.000467559333123735,0.000617630526029508,0.00499969264773994
3,0.000994112118104352,0.0133780414327746,-0.000565138565144992,-0.00134276893456286,0.000175941255879126,-0.00890550222925637,0.00447079142373921,0.00486874665015608,-0.0011058254821796,0.00717390514864696,-0.000149826391896452,0.00308831216015655,-0.000188078340456748,0.0125040701133819,-0.00266827475647972,0.00280935819747361,-0.000617561092240076,-0.000875481977180545,0.00102847228290742,0.00438620212600471,7.71725601394659E-05,0.00338547529900891,-0.00145842950685617,0.00833683357025691,0.00241691086885852,0.000256182872236952,0.00143780579496041,-0.000472650074925894,0.000642625993513496,0.00484853551789103
4,0.00104360018871791,0.0138474228409291,-0.000551746447314339,-0.00126466927573413,0.000119716406181409,-0.00905054448585868,0.00498102730483868,0.00536142110970881,-0.00111914464791992,0.00720024826009424,-0.000268358736350682,0.00405144781500674,-0.000150461311304873,0.0127623309402716,-0.00266943827281569,0.00268850413113471,-0.000546542483224411,-0.000838575138148506,0.00103645938572442,0.00427107427748015,5.93653915019807E-05,0.00353651209508922,-0.00147731832980917,0.0085914543902049,0.00246295579231342,0.000397661414584103,0.00135032862044964,-0.00047772293557868,0.00066779793138191,0.00468743112832761
5,0.00109463629918635,0.0143005478549999,-0.00053754755724891,-0.00117845814094796,6.56829619774527E-05,-0.00918764692825336,0.00548232830677328,0.0058455563725618,-0.00113415592932286,0.00721403627475428,-0.000377296462939121,0.00501600697148798,-0.000111415356523057,0.0130186876966083,-0.00266972907802216,0.00256008593419364,-0.000475506414637916,-0.000802014601841893,0.00104483391449015,0.00414819700294136,4.07253533807771E-05,0.00368140017683852,-0.00149503636281182,0.00884832507617681,0.00250698155826499,0.000542023565267177,0.00126402834019694,-0.000482538653636091,0.000692963392737283,0.00451625371052805
6,0.0011471874933914,0.0147354174319524,-0.000522388927888461,-0.00108439984228454,1.42076691749618E-05,-0.00931576204057181,0.00597279837438845,0.00631895352501425,-0.0011509382186113,0.00721412232196242,-0.000476100340126267,0.00597757506461193,-7.09734986480627E-05,0.0132711148185387,-0.00266904499856108,0.00242379069567696,-0.000404684323688189,-0.00076572838051287,0.00105359227345021,0.00401732458724484,2.13751091909852E-05,0.00381893967494046,-0.00151147102147593,0.00910618602350495,0.0025486906069915,0.000688840165114916,0.00117937340090981,-0.000486837492391484,0.000717924259410846,0.0043349339857184
7,0.00120121050806506,0.0151502328811264,-0.000506112945107112,-0.000982861272678201,-3.43702480191283E-05,-0.00943392949380713,0.00645067779815211,0.00677957544773278,-0.00116955799532534,0.00719945883274468,-0.000564339171803355,0.00693163129063521,-2.91751663974196E-05,0.0135175048173657,-0.00266727341542258,0.00227933472468423,-0.000334302601372141,-0.000729627424493858,0.00106271745689474,0.00387826146078469,1.45386342469474E-06,0.00394796942136542,-0.00152651939120205,0.00936369818183679,0.00258779935969691,0.000837653584392771,0.00109681925536366,-0.000490341186732814,0.000742468161237295,0.00414346448720255
8,0.00125665063936641,0.015543413550402,-0.000488559391856318,-0.000874314323983792,-7.97436062276801E-05,-0.00954128927779483,0.00691435703107232,0.00722556905132004,-0.001190067612232,0.00716911443307358,-0.000641696834478001,0.00787357961739851,1.39370770038986E-05,0.0137556828066492,-0.00266429091826735,0.00212647086259944,-0.000264580873918479,-0.000693606795515617,0.00107217784083531,0.0037308683466316,-1.88839391369928E-05,0.00406738053438126,-0.00154008922977137,0.0096194490174662,0.00262404075554666,0.000987980606370288,0.00101680393869957,-0.000492755214327259,0.000766369659799521,0.00394190457030341
9,0.00131344068451658,0.015913611163453,-0.000469567623428402,-0.000759337198636836,-0.000121641370056015,-0.00963709351639476,0.00736238778431554,0.00765528410890976,-0.00121250368701435,0.00712228957010606,-0.000707978010861727,0.00879878148746518,5.8321577151405E-05,0.0139834222578929,-0.00265996310445796,0.00196499592477235,-0.000195730381930577,-0.000657547085422549,0.00108192618536999,0.00357506782012501,-3.94702763895006E-05,0.00417612961231946,-0.00155209983780057,0.00987195957411854,0.0026571665575867,0.00113931582484764,0.000939743921600972,-0.000493771382173636,0.000789391700260959,0.00373038499872005
10,0.00137149999134348,0.0162597205531587,-0.000448978846876023,-0.000638614490464753,-0.000159832283125726,-0.00972071675521705,0.00779349124438385,0.00806728839191264,-0.00123688563297314,0.00705833059067921,-0.000763112480268376,0.00970259000501437,0.000103942378660967,0.0141984618935564,-0.00265414453521269,0.00179475814031223,-0.000127952473104969,-0.000621316070961909,0.00109189887300345,0.00341084915604411,-6.01255596819884E-05,0.00427325133447628,-0.00156248278385013,0.0101196926402624,0.00268694939562462,0.00129113554093415,0.000866030293809452,-0.000493070717661971,0.000811287329895554,0.00350911199465853
11,0.00143073364833303,0.0165808865966324,-0.000426638475502957,-0.000512935913769898,-0.000194127967468415,-0.00979166453328477,0.00820656330949892,0.00846037889834384,-0.00126321436151462,0.00697674201448055,-0.000807157836425733,0.0105803853661864,0.000150774712871872,0.0143985236121173,-0.00264667885850839,0.00161566444870558,-6.14372234452434E-05,-0.000584770594234271,0.00110201540315371,0.00323827235024511,-8.06609685976887E-05,0.00435787026959362,-0.00157118247296992,0.0103610620140193,0.00271318451888176,0.00144290213123411,0.000796025324291077,-0.000490326651262415,0.000831801676721149,0.00327837064127856
12,0.00149103184680865,0.0168765072239969,-0.000402398527558472,-0.000383193567895341,-0.000224385445677207,-0.0098495800748543,0.00860067680091742,0.00883358904747772,-0.00129147118807655,0.00687719677112202,-0.000840300517653873,0.0114276112610451,0.000198811109101695,0.0145813313248196,-0.00263739910557373,0.00142768750549939,3.63779922215354E-06,-0.000547758656977909,0.0011121781577943,0.00305747121711112,-0.000100881076597852,0.00442921169745302,-0.0015781565497041,0.0105944428377192,0.00273569123651437,0.00159406884619736,0.000730059436530121,-0.000485208475507585,0.000850674176435932,0.00303852753000435
13,0.00155226944515568,0.0171462324448355,-0.000376120036811719,-0.000250377637540131,-0.000250509051011433,-0.00989424896490019,0.00897508066557714,0.00918619179714347,-0.00132161697129578,0.00675954420014082,-0.000862855053350588,0.0122398119442109,0.000248068031876926,0.014744630567755,-0.0026261281649653,0.00123087224656775,6.71086169451037E-05,-0.000510121714999833,0.0011222724478852,0.0028686554808508,-0.000120586725486587,0.00448661125718304,-0.00158337612908708,0.0108181829536192,0.00275431402983445,0.0017440849840526,0.000668428629189722,-0.000477385061703662,0.000867641030820869,0.00279003255225848
14,0.00161430576257154,0.0173899594117448,-0.000347675441537084,-0.000115570447340981,-0.000272451701877557,-0.00992560170127508,0.00932919624874427,0.00951769871866729,-0.00135359151258351,0.00662381564533065,-0.000875261454640574,0.0130126696416171,0.00029859292476292,0.0148862087363976,-0.00261267943544171,0.00102534186156509,0.000128825757633104,-0.000471697156679191,0.00113216684515831,0.0026721117971299,-0.000139578098483704,0.00452952324691376,-0.00158682585196538,0.0110306152109203,0.00276892332612704,0.0018924013728009,0.000611392364011381,-0.000466528811572365,0.000882437876027116,0.00253341974533705
15,0.00167698462666162,0.017607823618038,-0.000316950917572924,2.00611873202304E-05,-0.000290215528337753,-0.0099437140480749,0.00966261077780114,0.00982785513782292,-0.00138731323981343,0.0064702275096695,-0.000878080705930746,0.0137420419342117,0.000350471522152198,0.0150039157730542,-0.00259685765628325,0.000811303031928705,0.000188654996215628,-0.000432320946511236,0.00114171379911768,0.00246820366129217,-0.000157657934527982,0.00455752741348008,-0.00158850376408329,0.0112300706326881,0.00277941593026616,0.00203847608060749,0.000559171934567584,-0.00045231981572734,0.000894802634781702,0.00226930711550006
16,0.00174013469532921,0.0178001864047658,-0.00028384862047536,0.000155275342932393,-0.000303851849146149,-0.00994880514804924,0.00997506825922832,0.0101166315172612,-0.00142267919454518,0.00629918167454047,-0.000871988347690154,0.0144239987373822,0.000403835274184315,0.0150956851213391,-0.0025784599114663,0.000589050296944289,0.000246477913862035,-0.000391830411130138,0.00115075053488837,0.00225737018015567,-0.000174634820510326,0.00457033408813627,-0.00158842102175162,0.0114148923302563,0.00278571511680259,0.00218178026405285,0.000511949321517847,-0.000434450184646659,0.000904478522537504,0.00199839537776688
17,0.00180357006883221,0.0179676190291826,-0.000248288801330088,0.000288766100684975,-0.000313460507969233,-0.00994123338670459,0.010266458048248,0.0103842113162021,-0.00145956533714908,0.00611126322705033,-0.000857766178405574,0.0150548584789091,0.000458868717264039,0.0151595547460998,-0.00255727680226297,0.000358969422558255,0.000302192270302841,-0.000350067141199201,0.00115910022380402,0.00204012370576345,-0.000190326493667019,0.00456778754490403,-0.00158660143052294,0.0115834500327352,0.00278777039176103,0.00232180405458728,0.000469866532464694,-0.00041262851086716,0.000911217173963868,0.00172146557100225
18,0.00186709120260523,0.0181108836207833,-0.000210211760491443,0.000419176349683329,-0.000319188586681593,-0.00992149003668451,0.0105368014025537,0.0106309756163377,-0.00149782717844548,0.00590723548202415,-0.000836292144370798,0.0156312230694876,0.00051581661371046,0.0151936880025943,-0.00253309378139204,0.000121539661400328,0.000355712186503748,-0.000306879978112381,0.0011665734152904,0.00181704635126208,-0.000204563083548153,0.00454986748241766,-0.00158308082703225,0.0117341550808015,0.00278555693994902,0.00245806237666532,0.000433025417417036,-0.000386584413793843,0.000914781852922059,0.00143937552803671
19,0.00193048612547028,0.0182309114200781,-0.000169579603418565,0.000545112201264166,-0.000321228521804412,-0.00989019074765449,0.0107862363762751,0.0108574848486855,-0.00153730074012305,0.00568803233046882,-0.000808528528465507,0.0161500112590554,0.000574990679109518,0.0151963941255461,-0.00250569264070237,-0.000122665191531178,0.000406968137149094,-0.000262128049813641,0.00117296971558364,0.00158878543099071,-0.000217190221998178,0.00451668855801671,-0.00157790631790883,0.0118654757173716,0.00277907477999986,0.00259010058684997,0.000401487944266808,-0.000356073111082609,0.000914950706203249,0.00115305520301649
20,0.00199353196120053,0.0183287787571504,-0.00012637776294836,0.000665158893950967,-0.00031981565723645,-0.00984806498380919,0.0110150014463042,0.0110644579944613,-0.00157780383936178,0.00545474799348546,-0.000775508591856641,0.0166084899796802,0.000636775715055096,0.0151661480974659,-0.00247485314335565,-0.000372977025231569,0.000455906754547562,-0.000215683815464394,0.00117807969604328,0.0013560478885152,-0.000228071950577251,0.00446849793425622,-0.00157113539328851,0.0119759524933051,0.00276834765544173,0.00271749982200439,0.000375276912602361,-0.000320879953310727,0.000911520018838738,0.000863500881133913
21,0.00205599674411228,0.0184056812795435,-8.06162528906757E-05,0.000777898026977002,-0.00031522527247993,-0.00979594354773552,0.0112234182891737,0.0112527496640067,-0.00161913768588845,0.00520862430905432,-0.000738321863966144,0.0170043032914813,0.000701634968124789,0.0151016096468472,-0.0024403547903773,-0.000628634979422245,0.000502490447670594,-0.000167436074427291,0.00118168701126095,0.00111959379726263,-0.000237093357854112,0.00440567083261987,-0.00156283493581681,0.0120642135941246,0.00275342169555502,0.00283988194673258,0.0003543770786888,-0.000280824851929514,0.000904307426734123,0.00057176831866256
22,0.0021176415115588,0.0184629069801554,-3.23306188795091E-05,0.000881925919623883,-0.000307769130728411,-0.00973474436510137,0.0114118741419905,0.0114233254816924,-0.00166108877230419,0.00495103572785587,-0.000698098314438667,0.0173354985712923,0.00077011454299379,0.0150016411211073,-0.0024019787100596,-0.000888788389263684,0.000546696842096292,-0.000117292891292121,0.00118357070483945,0.000880229038035908,-0.000244162883931342,0.0043287041264815,-0.00155308014899089,0.0121289898840329,0.00273436388438105,0.00295691399554998,0.000338736659644794,-0.000235766524705006,0.000893155040743008,0.000278964883268331
23,0.0021782226480871,0.0185018086040165,1.84174458923978E-05,0.000975872855236449,-0.000297791595630725,-0.00966545673881142,0.0115808041850252,0.0115772362219548,-0.00170343103117518,0.0046834722421469,-0.000655991674681085,0.0176005496132688,0.000842846708295781,0.0148653239770239,-0.0023595096568813,-0.00115250112377441,0.000588518048702747,-6.5184385591007E-05,0.00118350767864009,0.00063879727540668,-0.000249214236219504,0.00423820804452279,-0.00154195343108779,0.0121691294564372,0.00271126037973013,0.00306831201377331,0.000328269180849766,-0.000185606478469571,0.000877932435105819,-1.37592145378668E-05
24,0.00223749444788583,0.0185237760270318,7.15398499342183E-05,0.00105842293393309,-0.00028566536941163,-0.00958912431317232,0.0117306743763031,0.0117155911526823,-0.00174592822535226,0.00440752051731602,-0.000613162204535857,0.0177983763448571,0.000920551947904689,0.0146919736334543,-0.00231273810430762,-0.00141875731072766,0.000627959771079222,-1.10653325470447E-05,0.00118127529943198,0.000396171370187995,-0.000252207868566096,0.0041348960959858,-0.00152954322259838,0.0121836114760429,0.00268421472620606,0.0031738442125789,0.000322855627521838,-0.000130292646520068,0.000858539452490894,-0.000305220488587618
25,0.00229521185436844,0.0185302091993798,0.000126922244142677,0.00112833422780651,-0.000271786908372587,-0.00950682701756233,0.0118619651501697,0.01183953104751,-0.0017883365315951,0.00412484353760327,-0.000570759220770552,0.0179283608988647,0.00100403962745931,0.0144811524377915,-0.0022614624131206,-0.00168646841687016,0.000665040263825445,4.50824802070066E-05,0.00117665411511793,0.00015324437733228,-0.000253131985036353,0.00401957336930053,-0.00151594285586352,0.0121715590967488,0.00265334600700019,0.00327333336768961,0.000322346859283562,-6.98225978332923E-05,0.000834908777787438,-0.000594212415282474
26,0.00235113332871349,0.0185224922310821,0.000184424575811549,0.00118445890765893,-0.000256571574579876,-0.00941966228447933,0.0119751563628368,0.0119502013286182,-0.00183040727212745,0.00383715911399725,-0.000529903717550869,0.017990359821438,0.00109420716594004,0.014232680509233,-0.00220549105396441,-0.00195448162755326,0.000699789156184359,0.00010324819536251,0.00116943065090203,-8.90797127551811E-05,-0.000252003039613799,0.00389312339464106,-0.0015012494353606,0.0121322512425353,0.00261878697850043,0.00336665840715506,0.000326566245405041,-4.2462377164833E-06,0.000807008233449885,-0.000879516200352849
27,0.00240502379333063,0.0185019691674452,0.000243882072184388,0.00122576299167932,-0.000240448584670651,-0.00932872585804064,0.0120707138292153,0.0120487257967536,-0.00187188974451761,0.00354621763191605,-0.000491671414362756,0.0179847122354887,0.00119203762470844,0.0139466442386797,-0.00214464485978703,-0.00222158944454567,0.000732246157777056,0.000163390182673921,0.00115940025376043,-0.000329895326651416,-0.000248865713563989,0.00375649379758704,-0.0014855627757672,0.0120651330457605,0.00258068222971162,0.00345375515102188,0.000335312478246014,6.63320753286526E-05,0.000774842750726616,-0.00115991191975553
28,0.00245665759187639,0.0184699219582785,0.000305106662957673,0.00125134535441327,-0.000223855818048734,-0.00923509252541202,0.0121490777480337,0.0121361813957056,-0.00191253409749114,0.00325377943742646,-0.000457076563605741,0.0179122438188042,0.00129859565139829,0.0136234022468845,-0.00207875928105223,-0.00248654039534274,0.000762459665544807,0.000225434741974823,0.00114636995132295,-0.000568304590373653,-0.000243792362972057,0.0036106810039659,-0.00146898442258399,0.0119698247491417,0.00253918640528658,0.00353461618365787,0.000348362523090801,0.000141752063973479,0.000738455973641039,-0.00143418987196601
29,0.00250582140483653,0.0184275510682076,0.000367888843293177,0.00126045562923941,-0.000207234547201212,-0.00913979711460998,0.0122106532577461,0.012213574444548,-0.00195209419910152,0.0029615922722154,-0.000427056838163151,0.0177742664954714,0.00141502174312859,0.013263588629104,-0.00200768661421077,-0.00274805072233454,0.000790485293307604,0.000289275260895859,0.00113016128883473,-0.000803426381235454,-0.000236881939860989,0.00345671428374825,-0.00145161677686299,0.0118461288943728,0.00249446252685057,0.0036092898574535,0.000365474663876507,0.000221796774977978,0.000697931456191647,-0.00170116197446763
30,0.00255231705891192,0.0183759591078402,0.000431999970163025,0.00125251063962572,-0.000191024152392441,-0.00904381610700631,0.0122558033057176,0.0122818187524742,-0.00199033044417591,0.00267136916845758,-0.000402459598815592,0.0175725737785334,0.00154252482238588,0.0128681133456278,-0.00193129817217079,-0.0030048168965727,0.000816384347560536,0.000354771870192043,0.00111061310542848,-0.00103440499552615,-0.000228258401179873,0.00329563944324588,-0.00143356234162508,0.0116940356417627,0.00244668044247943,0.0036778784440187,0.000386391605984026,0.000306192575846786,0.000653393417899732,-0.00195967303683174
31,0.00259596416946451,0.0183161377893117,0.000497194975397392,0.00122710900394302,-0.000175656881588428,-0.00894805021106198,0.0122848439495155,0.0123417160075936,-0.00202701245006663,0.00238476720474005,-0.000384029812877303,0.0173094317416561,0.00168237314926126,0.0124381596527349,-0.00184948636456772,-0.0032555287795416,0.000840222275165713,0.000421751632365383,0.00108758420874762,-0.00126041828933162,-0.00021806863065977,0.00312850248871046,-0.00141492310302201,0.0115137260911852,0.00239601542881769,0.00374053546535911,0.000410843599007644,0.000394609936662065,0.000605007028507209,-0.00220861174634731
32,0.00263660255797537,0.0182489584273346,0.000563215468810979,0.00118404357581048,-0.000161552714196432,-0.008853308234825,0.0122980421437988,0.0123939388019496,-0.00206192159330542,0.00210336750333428,-0.000372399859708062,0.0169875656389873,0.00183588362515346,0.0119751785074837,-0.00176216665560948,-0.003498883238261,0.00086206711035619,0.000490009290391715,0.001060955905264,-0.0014806851643523,-0.000206479908868403,0.00295633359002845,-0.00139580005434881,0.0113055735045224,0.00234264696449302,0.00379746225248915,0.000438551544007474,0.00048666501345282,0.000552978199222008,-0.00244692120942025
33,0.00267409439066395,0.0181751661207199,0.000629793194457304,0.00112331140708779,-0.000149114384201065,-0.0087602925781755,0.0122956160012918,0.0124390166195638,-0.00209485334451246,0.00182865681773452,-0.000368081416894439,0.0166101422364453,0.00200440957509244,0.0114808799218983,-0.00166927936816965,-0.00373359800506618,0.00088198794983532,0.000559308592958949,0.00103063434260917,-0.00169447228839696,-0.000193676976516002,0.00278013167029627,-0.00137629286577917,0.0110701423630248,0.00228675768725122,0.00384890379227555,0.000469230051045463,0.000581922033323325,0.000497552865300428,-0.00267360890248152
34,0.00270832598991665,0.0180953776614591,0.000696653792670185,0.00104512095390804,-0.000138722614725432,-0.00866958664150058,0.0122777374534873,0.0124773250719276,-0.00212561936452457,0.00156201101827332,-0.000371459574260527,0.0161807479652479,0.00218932712786836,0.0109572212872356,-0.00157079130453698,-0.00395842556412602,0.000900053485609887,0.000629384200899807,0.000996552619960946,-0.00190109996076592,-0.000179858744927949,0.00260084993581725,-0.00135649969733081,0.0108081852288109,0.00222853254066644,0.00389514393488908,0.000502590413793161,0.000679896464627267,0.000439015752786515,-0.00288775589934317
35,0.00273920927677185,0.0180100831304926,0.000763520810447377,0.000949896287605889,-0.000130731612157223,-0.00858164441545104,0.012244537177676,0.0125090786156935,-0.00215404933080894,0.00130468073401827,-0.000382789272988312,0.0157033630598963,0.00239202034436569,0.010406392736684,-0.00146669715665363,-0.00417216684248465,0.000916330625417849,0.000699944166714908,0.000958672622985904,-0.00209994705522007,-0.000165234715390783,0.00241938264196346,-0.00133651714722991,0.0105206374171588,0.00216815810948606,0.00393650004406772,0.000538343468759545,0.00078005893806685,0.000377688630707236,-0.00308852525716593
36,0.00276668281021138,0.017919651052623,0.000830119893310722,0.000838278121764727,-0.000125464863949454,-0.00849678247698487,0.0121961116029279,0.0125343269303326,-0.00217999246944041,0.0010577793528253,-0.000402194115592347,0.0151823318974702,0.00261386527398704,0.00983079966445622,-0.00135702068162667,-0.00437368448422163,0.000930883230090229,0.0007706729655356,0.000916986540974624,-0.00229045499676958,-0.000150021175636964,0.00223655336404166,-0.0013164403226995,0.010208609524287,0.00210582213583502,0.0039733171805176,0.000576202307368444,0.000881839867162503,0.00031392805872879,-0.00327516945978682
37,0.00279071239722067,0.0178243368991302,0.000896183083430787,0.000711121523161177,-0.000123211280179024,-0.00841517457072311,0.0121325317597195,0.0125529550694935,-0.00220331877388414,0.000822273520643255,-0.000429667540823686,0.0146223298114524,0.00285621314588665,0.00923304256988723,-0.00124181562164661,-0.00456191549215107,0.000943770995834257,0.000841235041906443,0.000871518025586359,-0.0024721307521892,-0.000134437246956835,0.00205310500955653,-0.00129636301540014,0.00987337789293089,0.00204171320187776,0.00400596191525813,0.000615884809904153,0.000984634699662908,0.000248122648971154,-0.00344703683451263
38,0.00281129125630369,0.017724294647216,0.000961453141860658,0.000569490236874076,-0.000124221715023327,-0.00833684890283944,0.0120538536967036,0.0125646874294562,-0.00222391989725421,0.000598976218499807,-0.000465076307115157,0.0140283267092109,0.00312037292507152,0.00861589444558435,-0.0011211663511301,-0.00473588303220264,0.000955048507191251,0.000911278822732823,0.000822322953078541,-0.00264454883711257,-0.000118700859248664,0.00186969176996044,-0.00127637795943589,0.00951637313421258,0.00197602055840359,0.00403481587459323,0.000657115971445385,0.00108780971585763,0.000180689869106449,-0.0036035768761572
39,0.00282843972617791,0.017619591032436,0.00102568780743347,0.000414647622504884,-0.000128705900578616,-0.00826168821875256,0.0119601301541599,0.0125690955025983,-0.00224170970943337,0.000388542433655667,-0.000508166180038903,0.0134055478753091,0.00340759348254758,0.00798227597733181,-0.000995188237922232,-0.00489470721109433,0.000964764483303433,0.000980441133019013,0.000769489755169559,-0.00280735236403228,-0.000103024733691761,0.00168687316715107,-0.00125657714611746,0.00913916685819048,0.00190893407345366,0.00406026912167014,0.000699629991529403,0.00119070827619791,0.000112072421810145,-0.00374434442976052
40,0.00284220452054202,0.0175102220657716,0.00108866390143388,0.00024804426723161,-0.000136829821982447,-0.00818943267752282,0.0118514231573468,0.0125656093048328,-0.00225662451438693,0.000191467382550323,-0.000558569674339554,0.0127594323907262,0.00371904564300914,0.00733522886858291,-0.000864027709774733,-0.00503761465786464,0.000972961236159222,0.0010483519380271,0.000713139287984564,-0.00296025317496073,-8.76124536048184E-05,0.00150511030380174,-0.00123705216664213,0.00874345679624525,0.00184064427080815,0.0040827134812661,0.000743172101627402,0.00129265740987633,4.27342429302289E-05,-0.00386900270083259
41,0.00285265753894889,0.0173961313326811,0.00115018118572143,7.13024100559707E-05,-0.000148713559706996,-0.00811968547691157,0.0117278171746001,0.0125535322855588,-0.00226862292624855,8.08718926990115E-06,-0.000615815660192757,0.0120955896388677,0.00405580438265064,0.00667788764226151,-0.00072786202205384,-0.00516394676381964,0.000979674354756941,0.0011146393236737,0.000653424214108951,-0.0031030311194922,-7.26547033729956E-05,0.0013247643783548,-0.00121789455158695,0.00833105052539323,0.00177134242511414,0.00410253591452168,0.000787500107740291,0.00139297462864882,-2.6843832698967E-05,-0.00397732507890571
42,0.00285989425279823,0.0172772295486514,0.00121006588271403,-0.00011380262202287,-0.000164429622221298,-0.00805192112534106,0.0115894324748099,0.0125320594490175,-0.00227768540545054,-0.000161418124375593,-0.000679340607061974,0.0114197544013317,0.0044188314532056,0.0060134503057355,-0.000586898727626827,-0.00527316646273453,0.000984932623747841,0.00117893461685125,0.000590527879830183,-0.0032355325533173,-5.8325753024699E-05,0.00114609747647081,-0.00119919607468443,0.00790384802709714,0.00170122067880341,0.00412011204883413,0.000832385629662334,0.00149097484650686,-9.61686830706663E-05,-0.00406919577645312
43,0.00286403169418528,0.0171534148152923,0.00126817376865941,-0.000305363702884614,-0.000184001789967379,-0.00798549620212329,0.0114364383169283,0.0125002983393503,-0.002283813458527,-0.000317019521811266,-0.000748501207419513,0.0107377410685411,0.00480895870610069,0.00534514829007151,-0.000441374854918201,-0.00536486346274002,0.000988758179238926,0.00124087753943835,0.000524662678292954,-0.00335766814375808,-4.47802620525359E-05,0.000969275602167872,-0.00118104898780753,0.00746382333076614,0.00163047214579867,0.00413579996507834,0.000877615023749275,0.00158597728578399,-0.000164739728672708,-0.00414460930063927
44,0.00286520608370061,0.0170245930034271,0.0013243927570116,-0.000501365601410991,-0.000207404489642346,-0.00791966239665749,0.0112690656103432,0.0124572924703387,-0.00228702850746292,-0.000458831925988438,-0.000822588097087599,0.010055397501866,0.00522687238264915,0.00467621609129402,-0.000291555804922859,-0.00543875787208064,0.00099116689823266,0.00130012128454261,0.000456067899487842,-0.00346941007754853,-3.2150470379729E-05,0.000794373864999004,-0.00116354615446491,0.00701300550474981,0.00155929096833148,0.00414993433981875,0.000922989982304654,0.00167731225356026,-0.000232053915929058,-0.0042036687897177
45,0.00286357014116296,0.0168906976852805,0.00137864489651153,-0.000699710710872725,-0.000234562715896824,-0.00785358157185318,0.0110876186990724,0.0124020467168705,-0.00228737043680881,-0.000587105529969279,-0.000900840369372337,0.00937855908463904,0.00567309862273979,0.00400986104897139,-0.000137733982208941,-0.00549470219169549,0.000992169011857239,0.00135633740139487,0.000385007079542096,-0.00357078877182437,-2.05438370181659E-05,0.000621383695508492,-0.00114678105041276,0.00655345926528543,0.00148787229591453,0.00416282103433176,0.000968327809793996,0.00176432767825374,-0.000297610786780004,-0.00424658325900595
46,0.00285929013055123,0.0167517090469723,0.00143088771869858,-0.000898246400915123,-0.000265352515421456,-0.00778634255753854,0.010892485944354,0.0123335541306336,-0.00228489582939078,-0.000702215708601298,-0.000982460566755956,0.00871300349006802,0.00614799042602299,0.00334923369587889,1.97728216037073E-05,-0.00553268167729793,0.000991769926313951,0.00140922037651758,0.000311764874341311,-0.00366188919204724,-1.00411780743155E-05,0.000450221920891358,-0.0011308476022241,0.00608726547666681,0.00141641215946011,0.00417473221523236,0.00101346138375303,0.00184639530443786,-0.000360917563990441,-0.00427366381307839
47,0.00285254269693368,0.0166076712351171,0.00148111488193325,-0.00109479354512648,-0.000299602045606606,-0.00771697934655027,0.0106841488087557,0.012250823599272,-0.00227967590442872,-0.000804651809163445,-0.00106662982686021,0.00806440667552799,0.00665171627689141,0.00269739910167481,0.000180623270862768,-0.00555281310146746,0.000989971229550662,0.00145849180336572,0.000236643495636208,-0.00374284688032886,-6.95345537750908E-07,0.000280741497147961,-0.00111583983780728,0.00561650181390172,0.00134510721847574,0.00418590208346769,0.00105823881614805,0.00192291645364614,-0.000421494179862535,-0.0042853188910003
48,0.00284351155880741,0.0164587076272067,0.0015293560733996,-0.00128717575196581,-0.000337093216126278,-0.00764449033990784,0.0104631891796255,0.0121529077380033,-0.00227179417529891,-0.000895005105185434,-0.00115252285882024,0.00743830058645721,0.00718425061846163,0.00205730961343153,0.000344454532725252,-0.00555534197158795,0.000986771856256056,0.00150390404046093,0.00015995876097602,-0.00381384379435585,7.46952300944459E-06,0.000112743663822106,-0.00110185132690619,0.00514322385222306,0.00127415436489719,0.004196523279581,0.0011025228387059,0.00199332726982651,-0.000478878175109726,-0.00428204862001312
49,0.00283238412378224,0.0163050335641889,0.00157567614671963,-0.00147324881150318,-0.000377563916571637,-0.00756785826820555,0.0102302947096704,0.0120389303870117,-0.00226134384809166,-0.000973956197134218,-0.00123932243218483,0.00684003302053995,0.00774536633218569,0.00143177936658743,0.000510884504249203,-0.00554063828184937,0.000982169379016642,0.0015452432688521,8.20358215354258E-05,-0.00387510405095747,1.44581657156098E-05,-5.40087368243528E-05,-0.00108897439451291,0.00466944683589115,0.00120375017311129,0.004206744023622,0.00114618994297393,0.00205710337997365,-0.000532629394898648,-0.00426443836008134
50,0.00281934809879581,0.0161469661446058,0.00162017349041324,-0.00165092986555861,-0.000420710826409832,-0.00748607040431968,0.00998626199670982,0.0119081130879079,-0.00224842498655871,-0.00104226213630784,-0.00132623307297694,0.00627473006533555,0.00833462934954555,0.000823460901880313,0.000679514195806682,-0.0055091908967322,0.00097616138950411,0.00158233187319528,3.20464364042389E-06,-0.00392688965955036,2.03037633777805E-05,-0.000219777052324203,-0.00107729909583377,0.00419712836176983,0.00113409019176128,0.00421666603801797,0.00118912931223853,0.00211376391322441,-0.000582334410669679,-0.00423315152720897
51,0.00280458816786457,0.0159849307519163,0.00166297764104338,-0.00181822581469361,-0.000466192794988294,-0.00739813867792528,0.00973199747220678,0.0117597999287331,-0.00223314147403206,-0.0011007435342,-0.00141249368046508,0.00574726148095855,0.00895139549134968,0.000234824178104979,0.000849930246863414,-0.00546160067931147,0.000968746930438311,0.00161503008643577,-7.62046699740318E-05,-0.00396949631962512,2.50669193849903E-05,-0.00038483201202091,-0.00106691194791473,0.0037281521914614,0.00106536807874309,0.0042263432912292,0.00123124158763463,0.00216287483532836,-0.000627610599448401,-0.00418892178756511
52,0.00278828281061819,0.0158194640689093,0.00170424617397391,-0.00197326049197941,-0.000513634769139204,-0.00730311930535872,0.00946851591808783,0.0115934801792346,-0.00221559780839033,-0.00115027189916007,-0.00149738880317672,0.0052622093543724,0.00959480959919664,-0.000331861781263372,0.00102170755031515,-0.00539857249037491,0.000959927936840867,0.00164323685552286,-0.000155866624947508,-0.00400324934363042,2.88340729862586E-05,-0.000549438612017078,-0.00105789442016735,0.00326431337998526,0.000997774586176934,0.00423578158916933,0.00127243751463269,0.00220405156984709,-0.000668109817016138,-0.00413254471741113
53,0.00277060133342565,0.0156512134236422,0.0017441609236587,-0.0021143001599282,-0.000562632234458808,-0.00720013155928012,0.00919693658275178,0.0114088081855929,-0.0021958957720484,-0.00119175741605633,-0.0015802583431881,0.00482384030354634,0.010263806993278,-0.000874544425333372,0.00119441196179856,-0.00532090619388968,0.000949710643775995,0.0016668899042779,-0.000235465046225992,-0.00402849975267201,3.17153787900509E-05,-0.000713840986385974,-0.0010503211937305,0.00280730488006161,0.000931496406930399,0.00424493903022048,0.00131263651851587,0.00223696089254374,-0.000703521607475854,-0.00406486902583535
54,0.00275170118173497,0.0154809324078495,0.00178292360369837,-0.00223977692237647,-0.00061275612404197,-0.00708837532157678,0.00891847691925131,0.011205620054956,-0.00217413102508136,-0.00122613735390373,-0.00166050549302988,0.00443608145825837,0.0109571172612339,-0.00139140027222965,0.00136760307066872,-0.00522948681103354,0.000938106917383388,0.00168596498893133,-0.000314697652521762,-0.0040456205780238,3.38420974510748E-05,-0.000878247552624378,-0.00104425820770373,0.0023587057502031,0.000866714898397224,0.00425372732824493,0.00135176525846355,0.00226132210093836,-0.000733575899312773,-0.00398678743866507
55,0.00273172559729467,0.0153094728086329,0.00182075091400409,-0.00234830968610082,-0.000663558136017905,-0.00696714709005307,0.00863444402068279,0.0109839467330728,-0.00215038967573378,-0.00125436525239761,-0.00173760274882451,0.00410250038996693,0.0116732703543684,-0.00188084449708978,0.00154083700962803,-0.00512527396917514,0.000925135466564233,0.00170047436141453,-0.000393280392133475,-0.00405500338717626,3.53635536691527E-05,-0.00104281670921745,-0.00103976051859676,0.00191997106323863,0.000803604702691955,0.00426201399632316,0.00138975620948004,0.00227690747656893,-0.000758045146849947,-0.00389922734295531
56,0.00271080167723265,0.0151377729946788,0.00185786923778986,-0.00243872235605204,-0.000714576389428778,-0.00683585414441992,0.00834622387907062,0.0107440231607201,-0.00212474488843145,-0.00127740100250373,-0.00181109588564698,0.00382628910647159,0.0124106049400434,-0.0023415374989047,0.00171366928024687,-0.00500929079423219,0.000910822894216755,0.0017104644747329,-0.000470951441610337,-0.00405705503961098,3.64437275871475E-05,-0.00120764334885109,-0.00103687000760723,0.00149242358063507,0.000742332285235877,0.00426962537209528,0.00142654631968938,0.00228354207268047,-0.000776745885866115,-0.0038031412924206
57,0.00268903888362281,0.014966842996422,0.00189450904429548,-0.00251005900184849,-0.000765341337575115,-0.00669402661926489,0.00805526864359676,0.0104862932840511,-0.00209725359470514,-0.00129620190011163,-0.00188060582572285,0.00361025216882175,0.0131672789321501,-0.00277238848470459,0.0018856575717448,-0.0048826123951342,0.00089520454946876,0.00171601298320741,-0.000547474775386697,-0.00405219466522599,3.72575541312852E-05,-0.00137274643280657,-0.00103561297827476,0.00107724722778545,0.000683054415932623,0.00427635045364151,0.00146207578747332,0.00228110287440135,-0.000789539682895016,-0.00369949747523316
58,0.00266652804232026,0.0147977466126823,0.00193089912366319,-0.002561595790161,-0.000815381849554904,-0.00654132727995517,0.00776308210083778,0.0102114107880021,-0.00206795337685713,-0.00131171471643935,-0.00194582837612914,0.00345679892891382,0.013941282094775,-0.00317255615612786,0.00205636455030599,-0.00474635408800004,0.000878325145953655,0.00171722510766426,-0.000622643223766527,-0.00404085084781795,3.79870115406364E-05,-0.00153805785099964,-0.00103599769436012,0.000675482376724145,0.000625916618788831,0.00428194550290992,0.00149628699856369,0.00226951739149538,-0.000796333469157526,-0.00358927024674971
59,0.00264334085869751,0.0146315809616245,0.00196726078784999,-0.00259284953647087,-0.000864231364786386,-0.00637755885035325,0.00747120364248787,0.0099202355181575,-0.00203685959748329,-0.00132486879528304,-0.00200653185936129,0.00336793982709189,0.0147304505871669,-0.00354144662458035,0.00222536059581966,-0.00460165950537848,0.000860239115840217,0.00171422945145379,-0.000696280948033136,-0.00402345898764255,3.88170850993391E-05,-0.00170341276857438,-0.00103801191418447,0.000288022915713609,0.000571051616914605,0.00428613936186257,0.00152912365752858,0.00224876175510284,-0.000797079261940845,-0.00347343083077114
60,0.00261952996572062,0.0144694539688525,0.00200380217553163,-0.00260358278906725,-0.000911434022056406,-0.00620266879715944,0.00718119102352651,0.00961382565284496,-0.00200396284988362,-0.00133657015605152,-0.00206255270669835,0.00334528663038351,0.0155324832907311,-0.00387870871661916,0.0023922264622617,-0.0044496887326766,0.000841010675045035,0.00170717336722571,-0.000768245274518161,-0.00400045881109214,3.99316947973153E-05,-0.00186854163447356,-0.00104162048290879,-8.43849400660944E-05,0.000518577800293147,0.00428863941478407,0.00156053014119158,0.0022188583992141,-0.000791773288224794,-0.00335293829358149
61,0.00259512950685158,0.0143124603477774,0.00204071279943153,-0.00259380541688094,-0.000956550664120174,-0.00601675153294372,0.00689460224461275,0.00929342578162911,-0.00196922680476966,-0.00134769655346763,-0.00211378912995146,0.00339005643447156,0.0163449597311748,-0.00418422686077671,0.0025565558370162,-0.00429160660981638,0.000820713581781917,0.00169621798645789,-0.000838427843740844,-0.00397229199208976,4.15096762518102E-05,-0.00203306400043955,-0.00104676304817088,-0.000441142165760659,0.000468597743482699,0.00428913811854232,0.00159045109355192,0.00217987341480199,-0.000780454537109238,-0.00322873089488369
62,0.00257015624285587,0.0141616566751959,0.00207815847128842,-0.00256377272987123,-0.00099916462098889,-0.00582004805686188,0.00661297691548988,0.00896045113665206,-0.00193258652735541,-0.00135909342052054,-0.00216019303109798,0.00350307919724452,0.0171653593815582,-0.00445811177090189,0.00271795777335594,-0.00412857133122533,0.000799430578236159,0.00168153303365328,-0.000906755045827603,-0.00393939984891926,4.37209027435115E-05,-0.00219648427082849,-0.00105335196700726,-0.000781794862134277,0.000421196799479065,0.00428732001096129,0.00161883127298148,0.00213191366954323,-0.00076320277874956,-0.00310171791848006
63,0.00254461115804218,0.0140180361968327,0.00211627673278005,-0.00251398021549347,-0.00103888717954681,-0.0056129431071489,0.00633781747048139,0.00861646830706875,-0.00189394733576436,-0.00137157060138419,-0.00220176035062962,0.00368480852032093,0.0179910821056081,-0.0047006891595376,0.00287605896914273,-0.00396172347143089,0.00077725251353881,0.00166329155473836,-0.000973187728986203,-0.00390222108182276,4.67226327527712E-05,-0.00235818947477597,-0.00106127047297651,-0.00110603071757708,0.000376441794355874,0.00428286909587767,0.00164561565318713,0.00207512378894662,-0.000740136097710799,-0.00297277208281824
64,0.00251848152807447,0.0138825040123702,0.00215517291027491,-0.00244515502676355,-0.00107536265369387,-0.0053959599513222,0.00607057061223034,0.00826317284169159,-0.00185318426657424,-0.00138589976616081,-0.00223852009329183,0.00393533534902922,0.0188194694761963,-0.00491248672824269,0.00303050586365635,-0.00379217555670775,0.000754277155150506,0.00164166469440125,-0.00103772018349687,-0.00386118952066572,5.06561620888416E-05,-0.00251744912296447,-0.00107037117178921,-0.00141367412110968,0.000334379845117091,0.00427547649205529,0.00167074977001037,0.00200968309557359,-0.000711407997601418,-0.00284272262709021
65,0.00249174339857132,0.013755853286588,0.00219491689751307,-0.00235824440612659,-0.00110827297738192,-0.00516975298726467,0.00581260935553595,0.00790236420857917,-0.00181014220614756,-0.00140281238987058,-0.00227052230337352,0.00425440422249984,0.0196478266825512,-0.00509421969044102,0.00318096652342101,-0.00362100229535833,0.000730607705007211,0.00161681665979633,-0.00110037841914493,-0.00381673185811214,5.56438528033253E-05,-0.00267341718185104,-0.00108047493146849,-0.00170468006297512,0.000295037320609791,0.00426484822221029,0.00169418029696653,0.00193580260198208,-0.000677204141296659,-0.00271234916225515
66,0.00246436441153826,0.0136387431125095,0.00223554075352222,-0.00225440127420087,-0.00113734175222887,-0.00493509836974119,0.0055652160296616,0.00753591863085146,-0.00176463673708825,-0.00142299817422938,-0.00229782528994622,0.00464143167495902,0.0204734447229166,-0.00524677508658823,0.00332713228712451,-0.00344923157027877,0.000706351046081915,0.00158890000810946,-0.00116121776889164,-0.00376926535182993,6.17866028025228E-05,-0.00282513616903957,-0.00109137022906583,-0.00197912696812926,0.000258418962564227,0.00425071300835558,0.00171585582384803,0.00185372215010052,-0.000637738796827059,-0.00258237636803476
67,0.00243630690556162,0.0135316786143744,0.00227703718362713,-0.00213496725289574,-0.00116233769139672,-0.00469288291137839,0.00532956657524937,0.00716576035439476,-0.00171645573771515,-0.00144710379228227,-0.00232048242463103,0.00509552636770081,0.0212936225684389,-0.00537119515136772,0.00346871913944444,-0.00327783628753516,0.000681615754130132,0.00155805139281376,-0.00122031986549982,-0.00371919548894494,6.91618106478315E-05,-0.00297154334477183,-0.00110281301022906,-0.00223720861294348,0.000224507181081087,0.00423282993097122,0.00173572780503573,0.00176370778493684,-0.000593251062982959,-0.00245346960652808
68,0.0024075312059485,0.0134349938239154,0.0023193589497665,-0.00200145342777889,-0.0011830774117022,-0.00444409153398658,0.00510671644152854,0.00679383192506574,-0.00166536175894451,-0.00147573184245616,-0.00233852884986447,0.00561551051883027,0.0221056889804315,-0.00546865998843701,0.00360546878408937,-0.00310772716385614,0.000656509918067191,0.00152438789795098,-0.00127778905047228,-0.00366691361685881,7.78218796666589E-05,-0.00311147894640119,-0.00111452711050949,-0.00247922527674246,0.000193261536397148,0.00421099580266803,0.00175375163763562,0.00166604944377832,-0.000544000950841399,-0.00232623151056881
69,0.0023779990129705,0.0133488377944902,0.00236241923305929,-0.00185551918433158,-0.00119942753616863,-0.00418979356504839,0.00489758835147047,0.00642206406102442,-0.00161109518764993,-0.00150943990939601,-0.00235196844365792,0.00619994219468561,0.0229070236678797,-0.0055404698002013,0.00373714938793109,-0.00293974652436281,0.000631138820420487,0.00148800408140147,-0.00133374828576515,-0.00361279455608354,8.77932943882502E-05,-0.00324369638522793,-0.00112620527831972,-0.00270557427758239,0.000164618416723342,0.00418505210259597,0.00176988782440621,0.00156105903324144,-0.000490265397803537,-0.00220119959030111
70,0.00234767679041324,0.0132731643363195,0.002406092947364,-0.00169894947639694,-0.00121130607919701,-0.00393112818538306,0.00470296215764192,0.006052345701021,-0.00155337818877296,-0.00154873964323362,-0.00236076138708857,0.00684713803266498,0.0236950774855506,-0.00558802690858473,0.00386355597100161,-0.002774663169621,0.00060560253635384,0.00144896983689971,-0.00138833464813208,-0.00355719422223935,9.90762906761885E-05,-0.00336687429816721,-0.00113751082909567,-0.00291674003623583,0.000138490920495936,0.00415489131642978,0.00178410317284976,0.00144906895561991,-0.000432334289452441,-0.00207884488476006
71,0.00231653905308103,0.0132077256650626,0.00245021897826525,-0.00153363090230632,-0.00121868309610688,-0.00366928933784464,0.00452346696069276,0.00568649479326669,-0.00149191940064592,-0.00159409578580732,-0.00236481267298814,0.0075551959797543,0.0244673913950884,-0.00561281778832905,0.00398451042153633,-0.00261316835831185,0.00057999351562147,0.00140732917066212,-0.00144169449355572,-0.00350044729505425,0.000111645128971461,-0.00347963032033389,-0.00114807994870478,-0.00311328380413986,0.000114768950564554,0.00412046252886359,0.00179637197994822,0.0013304311329805,-0.000370506561770061,-0.00195957166674681
72,0.00228457145102678,0.013152070158242,0.00249460329836975,-0.00136152697458457,-0.00122158058795194,-0.00340551040396642,0.00435957560700024,0.00532623036345022,-0.001426419339663,-0.00164592509091093,-0.00236396187845135,0.00832201765407458,0.0252216139409948,-0.00561639531758473,0.00409986112124024,-0.00245587293855617,0.000554394216240967,0.00136309997215834,-0.00149397838502366,-0.00344286498135399,0.000125448968012404,-0.00358053641877597,-0.00115752465172529,-0.00329583318069269,9.33195276292523E-05,0.00408177612156034,0.0018066771519084,0.00120551656252933,-0.000305086452178027,-0.00184371818942548
73,0.00225177355025192,0.0131055443126925,0.00253902288781998,-0.00118465297266662,-0.00122007166130025,-0.00314104894625249,0.00421160162372562,0.00497314636594379,-0.00135657645210137,-0.0017045951050869,-0.00235797449999387,0.00914532996777157,0.0259555170288948,-0.00560036143207456,0.00420948217351323,-0.00230330564724577,0.000528874861472467,0.00131627484007864,-0.00154533588095973,-0.00338473292601082,0.000140413324481293,-0.0036681356024259,-0.0011654363871423,-0.00346507153347789,7.39873305272676E-05,0.00403890743964526,0.00181501120993979,0.00107471542019238,-0.00023637996266132,-0.00173155844248645
74,0.00221816121453244,0.0130672988941989,0.00258323036921915,-0.00100505076475593,-0.00121427895116986,-0.00287717179881954,0.00407969859050733,0.00462868778055951,-0.00128209373303412,-0.00177042279509498,-0.00234653511877303,0.0100227056877402,0.0266670098330936,-0.00556635034942601,0.00431327223633813,-0.00215591258263622,0.000503491392691019,0.00126682300426804,-0.00159591028401843,-0.00332630932917122,0.000156442092450204,-0.0037409597992034,-0.00117139027049495,-0.00362172742253779,5.65954715916478E-05,0.00399199930412695,0.00182137713645024,0.000938437711468554,-0.000164691592020538,-0.00162330486520143
75,0.002183768500869,0.0130362991703353,0.00262695924919405,-0.00082476397501578,-0.0012043723235988,-0.00261514076875758,0.00396386188944748,0.00429412936954705,-0.00120268581533832,-0.00184367302741841,-0.00232924262477681,0.0109515826547235,0.0273541507021423,-0.00551601250978978,0.00441115297163212,-0.0020140578409011,0.000478283689831629,0.00121469336267118,-0.00164583345079427,-0.00326782332954903,0.000173420085457073,-0.00379754866857804,-0.00117494990778782,-0.00376656411744788,4.0946516045863E-05,0.00394126326592052,0.00182578902099406,0.000797114449782856,-9.03213871497977E-05,-0.00151911194406071
76,0.00214864899174808,0.0130113390214307,0.00266992964491505,-0.000645813856002414,-0.00119056588245072,-0.00235619918538861,0.00386393272110747,0.00397055745697869,-0.00111808641619865,-0.0019245569235505,-0.00230560768402574,0.0119292814295714,0.028015156973041,-0.00545099935789967,0.00450306713370455,-0.00187802529229096,0.000453274128228991,0.00115981862953094,-0.00169522076238153,-0.00320947371207275,0.000191216053727084,-0.00383646909733472,-0.0011756727627809,-0.00390036928430042,2.68237550222232E-05,0.00388697951911928,0.0018282724717168,0.000651199323155652,-1.35623551934913E-05,-0.00141908060467259
77,0.0021128765007694,0.0129910586345966,0.00271185436322968,-0.000470176203979685,-0.0011731143130263,-0.00210155950512525,0.00377960422583146,0.00365885503630691,-0.0010280560146234,-0.00201323013194824,-0.0022750525825518,0.012953021186111,0.0286484126451554,-0.00537294907055553,0.0045889763306217,-0.00174802145698355,0.00042846653589646,0.00110212056759518,-0.00174416635369809,-0.00315142799378913,0.000209686119659289,-0.00385633510830095,-0.00117311600585303,-0.00402394490929015,1.39927420595072E-05,0.00382949541634549,0.00182886476579091,0.000501170790393993,6.53017304678242E-05,-0.00132326329180494
78,0.0020765451039676,0.0129739654038991,0.00275244519276228,-0.000299759626919278,-0.00115230860285605,-0.00185239214653653,0.00371042950842477,0.003359690452679,-0.000932389621673229,-0.00210979107309926,-0.00223691352634294,0.0140199337216385,0.0292524739026879,-0.00528347331241598,0.00466885850332835,-0.0016241794247565,0.000403845608688581,0.00104151625332346,-0.00179273869606422,-0.0030938219348555,0.000228677566421274,-0.00385582789683367,-0.00116684276978253,-0.00413809751677723,2.2031026418489E-06,0.00376922255677042,0.00182761472129149,0.000347534528652121,0.000145998107155263,-0.0012316696182539
79,0.00203976846694134,0.0129584575881662,0.0027914192654331,-0.000136385442125416,-0.00112847118765457,-0.00160981569425381,0.00365583133116029,0.0030735098454193,-0.0008309244956621,-0.00221427922778251,-0.00219044541888691,0.0151270755073954,0.0298260725088919,-0.00518414508230858,0.00474270517793734,-0.00150656374647418,0.000379376832520605,0.000977925300498925,-0.00184097662267349,-0.00303675951203869,0.000248032907521631,-0.00383371569829546,-0.00115642872581031,-0.00424362873271264,-8.8093746557606E-06,0.00370663244694742,0.0018245822829272,0.000190826135630896,0.000228266369904182,-0.00114427245285721
80,0.00200267845719843,0.0129428502186291,0.00282850534332178,1.82305567406275E-05,-0.00110195057774939,-0.00137488857225428,0.00361511321594409,0.00280053347369368,-0.000723547647775141,-0.00232667354994369,-0.0021348290788947,0.0162714377518773,0.0303681171259487,-0.00507648769238986,0.00481051855634392,-0.00139517620934926,0.00035500695206579,0.000911277944709281,-0.00188888588028133,-0.00298031338085809,0.000267594159713832,-0.00378887318192623,-0.00114146888254388,-0.0043413262392304,-1.93203586163748E-05,0.00364225076505483,0.00181983782472133,3.16139724878966E-05,0.000311859386629899,-0.00106101431050923
81,0.00196542305134972,0.012925402703334,0.00286344988951979,0.000162494263959973,-0.00107311552726028,-0.00114860224760174,0.00358747168148397,0.00254075598539883,-0.000610202979551266,-0.00244689109425311,-0.00206918080184042,0.0174499544990852,0.030877692641742,-0.00496196490383258,0.00487230851897369,-0.0012899623923242,0.000330665014326091,0.000841523869323065,-0.00193643628269389,-0.0029245258399605,0.00028720723763247,-0.00372030006281013,-0.00112158450089706,-0.00443195516295189,-2.9614303161728E-05,0.00357665028955991,0.0018134611837228,-0.000129497981673514,0.000396543790752613,-0.00098181390245836
82,0.0019281635673036,0.0129043475452324,0.00289602278739257,0.000294947200801446,-0.00104234881477799,-0.000931875985696968,0.00357200933531442,0.00229395062634494,-0.00049089789264273,-0.00257478595396882,-0.00199256411176938,0.0186595088318005,0.0313540576091393,-0.00484197222568168,0.00492808962080861,-0.00119081888298915,0.000306264003390319,0.000768641633261891,-0.00198355953257858,-0.00286941029813963,0.00030672638623467,-0.00362713862446018,-0.00109643001057694,-0.00451624993785962,-3.99814814704513E-05,0.00351044258277905,0.00180554044963705,-0.000291867405496111,0.000482100071825415,-0.000906572703381146
83,0.00189107127177328,0.0128779195766359,0.00292602258127092,0.000414278116480769,-0.00101004071015263,-0.000725553138359747,0.00356774854303808,0.00205967732435928,-0.000365709213313718,-0.00271014860686194,-0.00190400349601267,0.0198969372967625,0.0317966399253185,-0.00471782936843736,0.00497787816769228,-0.00109760102343418,0.000281703069773396,0.000692648542398738,-0.00203014776793991,-0.00281495323121885,0.000326018566434388,-0.00350868985031595,-0.00106569980783579,-0.00459490668309436,-5.07147293969235E-05,0.00344426854752316,0.00179617054540042,-0.000454811192547716,0.000568322295606447,-0.000835181392599951
84,0.00185432343257138,0.0128443851142197,0.00295328112274068,0.000519332182001565,-0.000976582207147466,-0.000530398907585409,0.0035736454073437,0.0018372945215555,-0.000234788279401953,-0.00285270576546396,-0.00180249986650804,0.021159032714457,0.0322050308985429,-0.00459077383101467,0.00502168946418811,-0.00101013103954452,0.000256870344194387,0.000613610790077862,-0.00207605287857253,-0.00276111660329883,0.000344967710252661,-0.00336442787355147,-0.00102913481048109,-0.00466857613625576,-6.21059057742996E-05,0.00337878800036614,0.00178545164270757,-0.000617603447344105,0.000655017495167479,-0.000767526030205626
85,0.00181809890275222,0.0128020704552886,0.00297766752008661,0.000609117750941604,-0.000942358106081204,-0.000347099491590348,0.00358860380621664,0.00162597456819992,-9.83650460719932E-05,-0.00300212082269929,-0.0016870474487268,0.0224425455812287,0.032578977867714,-0.00446195558910503,0.00505953532686857,-0.000928206396749329,0.000231646311740191,0.000531653678306084,-0.00212108662618703,-0.00270784071500509,0.000363478764296055,-0.00319401247130882,-0.000986528644626606,-0.00473785718328272,-7.44420824705457E-05,0.0033146684276743,0.00177348746393376,-0.000779474079810617,0.000742004783603809,-0.000703493834627991
86,0.00178257333919336,0.0127493891663878,0.0029990913037207,0.000682810703073272,-0.000907740034152497,-0.000176262486766803,0.0036114892620819,0.00142472243384228,4.32489212496546E-05,-0.00315799497514249,-0.0015566517639485,0.0237441843156337,0.0329183755559636,-0.00433243284465272,0.00509142195772844,-0.000851608215457669,0.000205907708340951,0.000446971719865703,-0.00216502158993409,-0.002655047430616,0.000381481444310663,-0.00299729935196927,-0.000937733338466554,-0.00480329102635805,-8.80014830362551E-05,0.00325257311018504,0.00176038352745309,-0.000939608155960182,0.000829114246292245,-0.000642978436227102
87,0.00174791417133832,0.0126848676580174,0.00301750473721578,0.00073975642677788,-0.000873079493930559,-1.84183903043224E-05,0.0036411424401661,0.00123239743611866,0.000189658682789176,-0.00331986909389591,-0.00141034834381281,0.0250606146441595,0.0332232563532076,-0.00420316879014777,0.00511734827124055,-0.000780109571735105,0.000179531887631041,0.000359838413225363,-0.00220759294688077,-0.00260264372650475,0.000398933628798682,-0.00277434801235621,-0.000882664401494141,-0.00486535603121511,-0.000103049195452258,0.00319314881850433,0.00174624539683039,-0.00109714615650397,0.000916185676087491,-0.000585884491601967
88,0.00171427544632581,0.0126071685924739,0.00303290422150743,0.000779469534030071,-0.00083870103251814,0.000125976975745448,0.00367639210388701,0.00104773763537899,0.000340385486164187,-0.00348722639777016,-0.00124722179843264,0.0263884584630786,0.0334937797335595,-0.00407502933769855,0.0051373047651396,-0.000713483503579057,0.000152401592855707,0.000270615476963077,-0.0022485010846939,-0.00255052549533767,0.000415824326061997,-0.00252542697567134,-0.000821305173035032,-0.00492446329450355,-0.000119832691833771,0.00313701329525971,0.0017311769956616,-0.00125118528466068,0.00100306721809401,-0.000532131555356503
89,0.00168179268447806,0.0125151117338715,0.0030453307585668,0.000801631436744645,-0.0008048956251229,0.00025653931672709,0.0037160673863528,0.000869386494696714,0.000494867728562613,-0.00365949596557821,-0.00106642485122683,0.0277242925518253,0.0337302210212265,-0.00394878176132002,0.00515127301905019,-0.000651510540801717,0.000124410055751906,0.000179761328727964,-0.00228741503137508,-0.00249858153407148,0.000432176156362343,-0.0022510162601522,-0.000753710331655377,-0.00498095297032492,-0.00013857719589988,0.00308474274959598,0.00171527904897686,-0.00140078194952353,0.00108961399153705,-0.000481657119843649
90,0.00165057788403328,0.0124076919182771,0.00305486946004345,0.000806085944917626,-0.000771914367116842,0.000372952204494969,0.00375900926886888,0.000695921360785153,0.000652463368670047,-0.00383605710459369,-0.000867196954971484,0.0290646475462974,0.0339329597222957,-0.00382509420143315,0.00515922589636561,-0.000593985577346857,9.54663325043312E-05,8.78385957652042E-05,-0.00232397667436571,-0.00244669763910358,0.000448047298946543,-0.00195180697238803,-0.000680008466848545,-0.00503509139251373,-0.000159480947432154,0.00303685959601903,0.0016986477092221,-0.00154495553204848,0.00117568675472339,-0.000434418748751041
91,0.00162071481603124,0.012284093895582,0.00306164810569204,0.00079283307468245,-0.00073996256794764,0.000474963120756483,0.0038040811885308,0.000525883283020684,0.000812453809946652,-0.00401624457138012,-0.000648882113955883,0.0304060076042679,0.0341024676389902,-0.00370453598300413,0.00516112851325954,-0.00054072390911382,6.55007761776637E-05,-4.47955014327298E-06,-0.00235780572871182,-0.00239476072905879,0.000463532862250531,-0.00162869796726826,-0.000600403626317183,-0.00508706902555072,-0.000182710421623658,0.00299382067212703,0.00168137342009417,-0.00168269351728908,0.00126115067518802,-0.000390395247129056
92,0.00159225474936029,0.0121437038710874,0.00306583477548855,0.000762021277595731,-0.000709194338257953,0.000562379422928945,0.00385017872643953,0.000357807656443792,0.000974049247501901,-0.00419935462013042,-0.000410945555859586,0.0317448112057471,0.0342392969770236,-0.00358757870276137,0.00515694002444489,-0.000491566268234434,3.44705357016969E-05,-9.64044307403849E-05,-0.00238850540129598,-0.0023426629147116,0.000478765644454075,-0.00128278956787496,-0.000515175766045329,-0.00513699927201833,-0.000208395569908791,0.00295600616846104,0.00166354006515135,-0.00181295804934449,0.00134587426105129,-0.00034958682843672
93,0.00156521274214011,0.0119861176516419,0.00306763459787187,0.000713938320680137,-0.000679707758037292,0.000635064445835247,0.00389623835490236,0.000190255151540435,0.00113639544074653,-0.00438465183316136,-0.000152988923140933,0.0330774535253646,0.0343440686454676,-0.0034745980461502,0.00514661625847696,-0.000446382696368359,2.36496381571094E-06,-0.000187028456151211,-0.00241566868549801,-0.002290305436451,0.00049391626054793,-0.000915374392393226,-0.000424680046056095,-0.00518491815818149,-0.000236625157278853,0.00292370949859338,0.00164522444039322,-0.00193469393515272,0.00142972850165751,-0.00031201425824405
94,0.00153956462887902,0.0118111453764241,0.00306728567419679,0.000649001059609364,-0.000651540708429478,0.000692933941830194,0.00394124524552663,2.18423798834019E-05,0.00129858184424061,-0.00457137666890404,0.000125236313690958,0.0344002907896536,0.0344174609323923,-0.00336587630071307,0.00513011321631434,-0.000405075114998347,-3.07891893466408E-05,-0.000275323442900771,-0.00243888520815237,-0.00223760239241663,0.000509192621113652,-0.000527925390354296,-0.000329344932072023,-0.00523078491162858,-0.000267442278924768,0.00289712832874014,0.00162649608112724,-0.00204683809036449,0.00151258625609957,-0.000277716974242624
95,0.00151524482329637,0.0116188128841451,0.0030650542559824,0.000567744354719135,-0.000624667442958088,0.000735953045544745,0.00398424016000332,-0.00014872825885344,0.00145965100071268,-0.00475875364501445,0.00042381748067053,0.0357096469889543,0.0344601987192284,-0.00326160553899191,0.0051073914258484,-0.000367578469901065,-6.49229238591501E-05,-0.000360140800411573,-0.00245774853845237,-0.00218448418480308,0.000524838757097818,-0.000122081246188508,-0.000229669081978416,-0.00527448343604651,-0.000300840146006985,0.00287635697376655,0.00160741746362788,-0.00214833038572127,0.00159432191765238,-0.000246750203051652
96,0.00149214504447669,0.0114093598346692,0.00306122926668491,0.000470809381288147,-0.000598995965604855,0.000764133927487596,0.00402432546148024,-0.000322640095902964,0.00161860907398575,-0.00494600005831711,0.000742671580540175,0.0370018232522253,0.0344730433734526,-0.00316189145041233,0.00507842112260465,-0.000333860349859374,-9.99206066937143E-05,-0.000440213706932084,-0.0024718638566355,-0.00213090061760997,0.000541132994027112,0.00030037063706366,-0.000126217015736788,-0.00531582467829502,-0.000336758236152793,0.00286138035063043,0.00158804459155877,-0.00223812581631184,0.00167481137084181,-0.00021918111583517
97,0.00147011405930021,0.0111832347621405,0.00305611627338127,0.00035893158201038,-0.000574366273719605,0.000777534273478743,0.00406067029676891,-0.000500935607872774,0.00177443737622605,-0.00513233512933075,0.00108153860105089,0.0382731101150706,0.034456783434106,-0.00306675780750447,0.00504318820331017,-0.00030391900611416,-0.000135616183904372,-0.000514161368553543,-0.00248085586900925,-0.00207682358604255,0.000558385488396946,0.00073751330836109,-1.9613587884925E-05,-0.00535454987218405,-0.000375078908671916,0.0028520696613182,0.00156842796609024,-0.00231520787950934,0.00175393224624918,-0.000195084086816037
98,0.00144895851707118,0.0109410872871993,0.00305003102581869,0.000232928501236778,-0.00055054951355871,0.000776256694746049,0.00409251500832105,-0.000684492227365745,0.00192610472407098,-0.00531698944724315,0.00143997737671851,0.0395198028191709,0.0344122261790648,-0.00297615155682071,0.00500170087511628,-0.000277779728781449,-0.000171790110580726,-0.000580495425228689,-0.00248437684532731,-0.00202224930558184,0.000576935148362938,0.00118732127916059,8.94626973508429E-05,-0.00539033463196391,-0.000415624587243055,0.00284817995546297,0.0015486139273408,-0.00237860301104489,0.00183156446655672,-0.000174535141186604
99,0.00142844493315385,0.0106837577567696,0.0030432926906521,9.3687727993303E-05,-0.000527248085718004,0.000760449137232544,0.00411917484009909,-0.000874001011257536,0.00207258044218811,-0.00549921458153285,0.00181736408088721,0.0407382196780325,0.0343401901379882,-0.00288994852859425,0.0049539968996489,-0.000255489569123188,-0.000208167114091548,-0.000637628536027429,-0.00248211464495468,-0.00196720003720679,0.000597145970283893,0.00164768301584863,0.000200287467389363,-0.00542279385674901,-0.000458155613767557,0.00284934969842283,0.00152864634344936,-0.00242739589332063,0.00190759106609953,-0.000157605701408442
100,0.0014083028574566,0.0104122646106386,0.00303621691719079,-5.78448413959611E-05,-0.000504096727120968,0.000730306319264276,0.00414004300333455,-0.00106994857910492,0.00221284782093189,-0.00567829271904224,0.00221289337610054,0.0419247234329259,0.0342414985913426,-0.00280795976110948,0.00490015130844122,-0.000237110431672123,-0.00024441489679954,-0.000683885142776324,-0.00247380058999555,-0.00191172527415114,0.000619402831943563,0.00211642451953184,0.000312099277592558,-0.0054514873951638,-0.000502368876046132,0.00285510244398463,0.00150856861248663,-0.00246074541645776,0.00198189925558717,-0.000144355763109547
101,0.00138822924104923,0.0101277897946102,0.00302910887738192,-0.000220676229494538,-0.000480664585693122,0.000686072185406878,0.00415459316696463,-0.00127260267610757,0.00234591782712643,-0.00585354618013649,0.00262558220237276,0.0430757454079163,0.0341169740745118,-0.00272993843551629,0.00484028444533733,-0.000222710597169028,-0.000280143872571175,-0.000717514377254191,-0.0024592170369771,-0.00185590236471956,0.00064410679220335,0.00259133357015416,0.000424109321295444,-0.00547592640768466,-0.000547897308764859,0.00286485068239526,0.00148842593175374,-0.00247790104143139,0.00205438169395058,-0.000134826653264951
102,0.0013678939903794,0.00983166255075677,0.00302225642680661,-0.000393776923065633,-0.0004564582934414,0.000628043322297822,0.00416238143358408,-0.0014820016489913,0.00247084286359522,-0.00602434666447322,0.00305427613582424,0.0441878121581285,0.0339674338872426,-0.00265558741407182,0.00477457017268869,-0.000212354775372374,-0.000314908017133342,-0.000736705042777297,-0.00243820449417333,-0.00179983655490046,0.000671669955187647,0.00307018419249679,0.000535511933766221,-0.00549558035271414,-0.000594310361851663,0.00287790190446461,0.00146826777897713,-0.00247821928664021,0.0021249379207266,-0.000129033543510798
103,0.00134694667386427,0.00952534191685873,0.00301592353488842,-0.000576090592109191,-0.000430926033338748,0.00055657324060191,0.00416304785545204,-0.00169794805033316,0.0025867303737145,-0.00619012407565784,0.00349765820511689,0.0452575741951495,0.0337936865928096,-0.00258456736927481,0.00470324406201347,-0.000206092825270005,-0.000348206895798377,-0.000739602566826245,-0.00241066812957374,-0.00174366044366197,0.000702509964690747,0.0035507608917583,0.00064549575324368,-0.00550988451161749,-0.000641115522480009,0.00289346689138587,0.00144815054064686,-0.00246118003504802,0.0021934758953101,-0.000126957909623936
104,0.00132502432052428,0.00921039826029038,0.00301034413108496,-0.000766542863618412,-0.000403462585139115,0.000472077387020749,0.00415631753692471,-0.00192000650863523,0.00269275609169169,-0.00635037477452757,0.00395426001098564,0.0462818362718103,0.033596529478365,-0.00251650548290398,0.00462661137657192,-0.000203947318229135,-0.000379488913514312,-0.000724327787854761,-0.00237658351514492,-0.00168753285281573,0.000737044201201209,0.0040308822063267,0.00075325538695119,-0.00551824795802686,-0.000687760966774753,0.00291067020802551,0.00142814021439964,-0.00242640233927079,0.00225991358409,-0.000128540143680876
105,0.00130176022529766,0.00888849415727086,0.00300571650938922,-0.000964049059189517,-0.000373415324977196,0.000375038712451516,0.00414200136016308,-0.00214750591953549,0.00278817674706125,-0.00650466911296912,0.00442247495565189,0.0472575886190245,0.0333767469378039,-0.00245100468253249,0.00454505464331903,-0.000205900156297358,-0.000408155811876714,-0.000688997407065643,-0.00233600145660006,-0.00163163712213007,0.000775683759729744,0.0045084231350827,0.000858003416788147,-0.00552006186791458,-0.000733639404564836,0.00292856284507021,0.00140831510505118,-0.00237365938733105,0.00232418053319189,-0.000133672537476949
106,0.00127679365125363,0.00856136490753956,0.00300219842592157,-0.00116752083492156,-0.000340091143347212,0.000266013587887274,0.00411999636063008,-0.00237954592980171,0.00287234204256756,-0.00665265810414409,0.00490057335471925,0.0481820384528054,0.0331351097308612,-0.00238765336875399,0.00445904060525824,-0.000211878492323798,-0.000433568415975098,-0.000631745905184829,-0.00228905176447248,-0.00157617884893965,0.000818827291529178,0.00498133601604121,0.000958982568489627,-0.00551470805948341,-0.000778093165303154,0.00294613692288437,0.00138876842776846,-0.00230289228291654,0.00238621936340613,-0.000142192863765252
107,0.00124978029564493,0.00823079894824376,0.00299990301372741,-0.00137587169168136,-0.000302764235880608,0.00014563782946417,0.00409028576829074,-0.00261500760221847,0.0029447057376524,-0.00679407909098827,0.00538671917491395,0.0490526410125906,0.0328723750667526,-0.00232603556939564,0.00436912634273749,-0.00022174022991415,-0.000455053611069997,-0.000550748695496721,-0.00223594583187371,-0.00152138309980719,0.000866854796867489,0.00544766946216457,0.00105547785967552,-0.00550156764602316,-0.000820420555533025,0.00296234233751711,0.00136961072708772,-0.00221422229145564,0.00244598712485009,-0.000153878785145703
108,0.00122040336514641,0.00789861840034873,0.00299889562515272,-0.00158802135273264,-0.000260684711392255,1.46325692037147E-05,0.00405293872010543,-0.00285256806820881,0.00300483568467971,-0.00692876028313592,0.0058789881172354,0.0498671293551208,0.0325892874572182,-0.00226574143787015,0.00427596435413952,-0.000235259408595719,-0.000471912505447323,-0.000444246257949202,-0.00217697789681926,-0.00146749112982625,0.000920121459303061,0.00590558499844108,0.00114682853665634,-0.00548002968070927,-0.000859883498050586,0.00297610519729142,0.00135097201718651,-0.00210796120762473,0.00250345645180295,-0.000168443318430899
109,0.00118838508624973,0.00756665994742368,0.0029991916954652,-0.00180289903276374,-0.000213087952101157,-0.000126190310544295,0.00400810963988389,-0.0030907188979716,0.00305242268135616,-0.00705662404325992,0.00637538674701832,0.050623542114045,0.0322865802821395,-0.00220637799217925,0.00418030639312061,-0.000252111802124814,-0.000483429711726128,-0.0003105689752729,-0.00211252488230881,-0.00141475665290911,0.000978951614427113,0.00635337109130075,0.00123243960741689,-0.005449499670005,-0.000895716440274209,0.00298634786712101,0.0013330035471809,-0.00198461951131567,0.00255861646266032,-0.000185531574540441
110,0.00115349846013358,0.00723675621143462,0.00300075570193245,-0.00201944564635128,-0.000159204651881354,-0.000275923472326132,0.00395603727330613,-0.00332778784675213,0.00308728802015516,-0.00717768881742255,0.00687387236013922,0.0513202484467915,0.031964978010861,-0.00214757996971263,0.00408300587131586,-0.000271861074855396,-0.000488883654761719,-0.000148162371019647,-0.00204304472532817,-0.0013634417138927,0.00104363294776793,0.00678945431636892,0.00131179277915033,-0.00540940783198517,-0.000927136494457259,0.00299201040748481,0.0013158790954191,-0.001844911997684,0.00261147335574343,-0.000204718980044916
111,0.00111557905786733,0.00691071775440269,0.00300350127067706,-0.00223661502391922,-9.82714499009594E-05,-0.000433560445426129,0.00389704335927006,-0.00356196357197834,0.00310938963359868,-0.00729206962050006,0.00737237326800227,0.0519559694290835,0.0316251990239616,-0.00208902065177393,0.00398501865232846,-0.000293945851800956,-0.000487557790437296,4.43875686131918E-05,-0.00196907312646373,-0.00131381222053341,0.00111441101748506,0.00721240747240572,0.0013844566133036,-0.00535921697762235,-0.000953354745561441,0.00299207316625919,0.00129979569895816,-0.00168976059253791,0.00266205065845047,-0.000225511166174383
112,0.00107453664192572,0.00659031579973964,0.00300729245972641,-0.00245337421865958,-2.9542068997968E-05,-0.000597993266740514,0.00383153091390109,-0.00379132286049568,0.00311882675272805,-0.00739997700701544,0.00786880918279342,0.0525297952245135,0.031267958983476,-0.00203042249162695,0.00388740208470962,-0.00031766806181527,-0.000478752596398145,0.000268329322244429,-0.00189121867471789,-0.00126613320043835,0.00119148419764186,0.00762095451678737,0.00145009571945004,-0.00529842989695571,-0.000973588634257468,0.00298558025484469,0.00128497372881853,-0.00152029409670607,0.00271038909471305,-0.000247345684387152
113,0.00103036639400487,0.00627726573410882,0.00301194622127565,-0.00266870299839683,4.77011395131377E-05,-0.000768011720412475,0.00375998210062388,-0.0040138598589412,0.00311584301476927,-0.00750171447952298,0.00836111138859698,0.0530411974506926,0.0308939747044715,-0.00197156736169172,0.00379131214816994,-0.000342182909619414,-0.000461798173441471,0.000524721354958897,-0.0018101563271462,-0.00122066385463031,0.00127499913729547,0.00801397226965974,0.00150847882138241,-0.00522659613816201,-0.000987075293136912,0.0029716636157594,0.00127165622838513,-0.00133784464169171,0.00275654604374788,-0.00026959567459104
114,0.000983159527254315,0.00597321142115689,0.00301723601987986,-0.00288159262205466,0.000134135350353901,-0.000942304435343244,0.00368295565860018,-0.00422751676422768,0.0031008279746613,-0.00759767431057436,0.00884724239319157,0.0534900362814257,0.0305039684873624,-0.00191230622016546,0.00369799861795376,-0.000366490820753361,-0.000436067275090446,0.000814408587835937,-0.00172661924977438,-0.00117765248562065,0.00136504682946558,0.00839048890843688,0.00155948554437246,-0.00514331807589618,-0.000993085684339805,0.00294956736765276,0.00126010744163986,-0.00114394068330955,0.00280059457156111,-0.000291575573086299
115,0.000933113063397384,0.00567971033367577,0.00302289655675995,-0.003091044001546,0.000230385231197809,-0.00111946207154857,0.0036010838624659,-0.00443021540590207,0.00307431699357031,-0.00768833177966771,0.00932521476959509,0.0538765619610063,0.0300986728782178,-0.00185256798553723,0.0036087981865763,-0.000389431683638432,-0.00040098856310051,0.00113800017488709,-0.001641389054472,-0.00113733138333137,0.00146165938230069,0.00874967934998843,0.00160311179113615,-0.00504825617582647,-0.000990939356964271,0.00291867209604227,0.00125061046993678,-0.000940296409427377,0.00284262202548555,-0.00031254890266363
116,0.000880538561831812,0.00539821949168133,0.00302862952439857,-0.00329606534707351,0.000337010842339815,-0.00129798279117569,0.00351506898852163,-0.00461988913846272,0.0030369894955807,-0.00777423785280974,0.00979310891557402,0.0542014105556053,0.0296788358333711,-0.0017923673998502,0.0035251255193347,-0.000409681684722897,-0.00035605986853288,0.00149584894986783,-0.00155528449555638,-0.00109991175665549,0.00156480758246731,0.00909085769281785,0.00163947359510889,-0.00494113337492859,-0.000980019613364957,0.00287851874446361,0.00124346401091394,-0.000728797491612746,0.00288272819113121,-0.000331738137629182
117,0.000825869598636787,0.00513008218118996,0.00303411029094704,-0.00349566938766077,0.00045449559666395,-0.00147628016844942,0.00342567926623767,-0.00479451446013998,0.00298966560130074,-0.00785601035880166,0.0102490894830872,0.0544655939207754,0.0292452262745386,-0.00173181165869699,0.00344846225946337,-0.000425752996308665,-0.000300861221883627,0.00188803290536136,-0.00146914871931373,-0.00106557880151864,0.00167439933790666,0.00941346696375845,0.0016688093625545,-0.00482173851158571,-0.000959788845330952,0.00282883175156331,0.00123897815094931,-0.000511483167569125,0.00292102302042707,-0.000348336582653276
118,0.000769667808366165,0.0048765154224611,0.00303899539154538,-0.00368887024999193,0.000583234414562847,-0.00165269364558107,0.00333374429907747,-0.00495214178560113,0.002933301164071,-0.00793432374251559,0.010691420257507,0.0546704840161961,0.0287986400310463,-0.00167110558828928,0.00338034403974521,-0.000435996532533565,-0.000235067401914653,0.00231433906317452,-0.00138383518877289,-0.00103448699765325,0.00179027908355811,0.00971706648112553,0.00169148043921385,-0.00468992875552551,-0.000929803774786837,0.00276954107532476,0.0012374692032584,-0.000290524700867203,0.00295762394883574,-0.000361522147304806
119,0.000712627320448394,0.00463859815722113,0.0030429306843768,-0.00387468006814075,0.000723522215496975,-0.00182550158953538,0.00324014994523509,-0.00509092482371263,0.00286898125081333,-0.00800989750067853,0.0111184772977612,0.0548177918423833,0.0283399061762119,-0.00161055515790284,0.00332234559896869,-0.000438607937775557,-0.000158459741656946,0.00277425008796233,-0.00130019243437817,-0.00100675572560057,0.00191222822933794,0.0100013172068946,0.00170796996213131,-0.00454563100471637,-0.000889730309781937,0.0027008027464555,0.00123925360705192,-6.82003257921805E-05,0.00299265282922989,-0.00037047283921658
120,0.000655577444771982,0.00441726013177154,0.00304556001399482,-0.0040521053853492,0.000875542894895975,-0.00199293694835781,0.00314583265696992,-0.00520914804760713,0.00279791212534622,-0.00808348342940827,0.0115287601824065,0.0549095414034261,0.0278698937749237,-0.00155056912981543,0.00327606414295009,-0.000431636914377983,-7.09369219053618E-05,0.00326693398453767,-0.00121904780815186,-0.0009824652924637,0.00203996672445644,0.0102659655126184,0.00171887998256784,-0.00438884223416212,-0.000839357705875891,0.002623017599322,0.00124464092867251,0.000153133152671893,0.00302623251920807,-0.000374383739481717
121,0.00059948348738529,0.00421327146664331,0.00304653421391538,-0.00422014339747099,0.00103935894220328,-0.00215320544639704,0.0030517732868273,-0.00530525179195449,0.00272141180728187,-0.00815585183430841,0.0119209012421446,0.05494803921041,0.0273895190683861,-0.00149165866861735,0.00324310113005432,-0.000412999934258064,2.74755222708822E-05,0.0037912372029895,-0.00114119044402108,-0.000961653449479317,0.0021731558058957,0.0105108258260839,0.00172492687120817,-0.00421962879977885,-0.00077861170635036,0.00253684784102279,0.00125392603267718,0.000371071871412513,0.00305848316765274,-0.000372485165669855
122,0.000545445606889696,0.00402723292316182,0.00304552027521013,-0.00437777807675445,0.00121490186317473,-0.00230450619609388,0.0029589903800966,-0.00537785456996507,0.0026408992944705,-0.00822777687270885,0.0122936726954757,0.0549358399290701,0.0268997531291212,-0.00143443475738944,0.00322504269945562,-0.000380496313081434,0.000136617257625225,0.00434568145413128,-0.00106735364972877,-0.000944312476489253,0.00231140199137515,0.0107357626571533,0.00172693504196285,-0.00403812471901665,-0.000707566322680222,0.00244323113748898,0.0012673805186735,0.000583199240472881,0.00308951825491491,-0.000364061672373318
123,0.00049469565470444,0.0038595669023192,0.00304221050816824,-0.00452397620495516,0.00140196357715934,-0.00244505454091075,0.00286853298521031,-0.00542577226820819,0.00255788255141682,-0.00830002121310109,0.0126459916402601,0.0548757088411826,0.02640163002369,-0.00137960329942698,0.00322343899609442,-0.000331827557857725,0.000256187044308115,0.00492846451071646,-0.000998196975664654,-0.000930386897919876,0.00245426236823936,0.0109406725212155,0.00172582905537371,-0.00384452896850227,-0.000626453909988905,0.00234339191998679,0.00128524354755454,0.000787122739362142,0.00311944044893971,-0.000348471488029721
124,0.000448591977539676,0.00371050924089519,0.00303633153001691,-0.00465768333691849,0.0016001889680179,-0.00257310688032708,0.00278147302717005,-0.00544803394854629,0.00247394538019996,-0.00837332020855698,0.0129769228893178,0.0547705818327358,0.025896255521116,-0.00132795782047575,0.0032397826787935,-0.000264619830690948,0.000385738728913557,0.00553746523720278,-0.000934288222544271,-0.000919771882067348,0.00260125121931331,0.0111254662869222,0.00172262418679595,-0.00363910185765625,-0.000535673191284767,0.00223884964594819,0.00130771220781351,0.000980512767574637,0.00314833734671046,-0.000325165941461683
125,0.000408612197721313,0.00358010190281068,0.00302765292288809,-0.00477781971025868,0.00180906977541859,-0.00268698716461641,0.00269889730318157,-0.00544389406113398,0.00239073330419996,-0.00844836578867616,0.0132856796725398,0.0546235236449454,0.025384816380315,-0.00128036972720364,0.00327548692668816,-0.000176449304600314,0.000524679593805746,0.00617025305257426,-0.000876085662681433,-0.000912312360595247,0.00275184801487285,0.011290052471433,0.00171841556799768,-0.00342216055587551,-0.000435794889513677,0.00213142378430562,0.00133493159810363,0.00116114308518317,0.00317627717640714,-0.000293708393627268
126,0.000376344026043374,0.00346818669904592,0.00301599542207608,-0.0048832761139924,0.00202794002114453,-0.00278511468554681,0.0026218991741316,-0.00541284094842631,0.0023099386083737,-0.00852579027827062,0.0135716222611778,0.0544376851295145,0.0248685902385378,-0.00123777612209085,0.0033318632833534,-6.48701232547777E-05,0.000672271301879471,0.00682410198677479,-0.000823920758297974,-0.000907802888523572,0.00290550678654896,0.0114343219914946,0.00171436603343514,-0.00319407386927071,-0.000327564638156466,0.00202323533686435,0.00136698482544391,0.00132693233095786,0.00320330454054634,-0.000253792160933054
127,0.000353474202134028,0.0033744002057515,0.00300123851430152,-0.00497290972924119,0.00225597317223352,-0.00286603273064915,0.00255157003994913,-0.0053546015955491,0.00223328469291417,-0.00860615035059655,0.0138342546020788,0.0542162602402923,0.0243489561036102,-0.0012011652222063,0.00341009969708165,7.25553836196376E-05,0.000827633655670009,0.00749600944161556,-0.000777981664708612,-0.000905988247057992,0.00306166688436038,0.011558134852763,0.00171169282407563,-0.00295525638077188,-0.000211902859450571,0.00191670475294683,0.00140388313882052,0.00147598606298204,0.00322943628408718,-0.000205256897472392
128,0.000341775698425238,0.00329817008589166,0.0029833273481998,-0.00504553995855068,0.00249218124860442,-0.00292843761487901,0.00248899070082235,-0.00526914265536863,0.00216250990984356,-0.0086899113186559,0.0140732190806346,0.0539624434724672,0.0238274054247175,-0.00117155947849674,0.00351123912900908,0.000238224632433279,0.000989751364830578,0.00818271971165373,-0.000738297806274914,-0.000906564772890994,0.00321976510232696,0.0116613092233674,0.00171165332211302,-0.00270616208416431,-8.99013244366649E-05,0.00181454614371337,0.0014455564348221,0.00160663873110634,0.00325465757412808,-0.000148102895882403
129,0.000343093365175968,0.0032387130531767,0.00296227888356689,-0.00509994426701762,0.00273541608662836,-0.00297120755591492,0.00243522271922601,-0.00515666784539367,0.00209935106439115,-0.00877743196021713,0.0142882895610598,0.053679388429804,0.0233055536795073,-0.00114999654224216,0.00363615910765555,0.000434461317827208,0.00115748398640448,0.00888075225978002,-0.000704725808820481,-0.000909182378695091,0.00337924914145972,0.0117436132914215,0.00171553000913033,-0.00244727765760579,3.71838590615019E-05,0.0017197577542832,0.00149184438487377,0.00171749496256544,0.00327891827951049,-8.25027710519531E-05
130,0.000359328235010876,0.00319503474631011,0.00293818723103686,-0.00513485406820795,0.0029843729712079,-0.00299343081929559,0.00239129990928143,-0.00501761187658025,0.00204552677482339,-0.00886895006116018,0.0144793628809613,0.0533701681615579,0.0227851523701086,-0.00113750827519405,0.00378555260859325,0.000663481039076651,0.00132957916804776,0.00958643467663306,-0.000676937063866792,-0.000913447211076473,0.00353959236158824,0.0118047602507398,0.00172461485810504,-0.00217911553455153,0.000167943045822535,0.00163560870512299,0.00154248844217447,0.00180746952226775,0.00330212973951223,-8.81000817851434E-06
131,0.000392420745406438,0.00316593180481231,0.002911228158939,-0.00514895070061893,0.00323759684665695,-0.00299443252805412,0.00235822008966356,-0.00485263112971407,0.00200272089560964,-0.00896456884800352,0.0146464490035146,0.0530377378643343,0.0222681012689436,-0.00113509804858854,0.00395991063131894,0.000927356549518223,0.00150468928547146,0.0102959401831965,-0.000654407187706214,-0.000918924874945503,0.00370030975571544,0.0118444066952784,0.00174019338601248,-0.00190220693881415,0.000300827810226997,0.00156562206820843,0.00159712499026342,0.0018758252980636,0.00332416201092197,7.24361132254884E-05
132,0.000444333175678586,0.0031499964531447,0.00288166276831318,-0.00514086155587871,0.00349349131028812,-0.00297379950910409,0.00233693724365809,-0.00466259134218829,0.00197256621923395,-0.00906424446447296,0.0147896600542227,0.052684900490735,0.021756460699319,-0.0011437166227316,0.00415950683219302,0.00122798318341712,0.00168139152199278,0.0110053294628346,-0.000636407622060068,-0.000925144137746178,0.00386097506260129,0.0118621546318538,0.00176352860852083,-0.00161709505475589,0.000434169779975347,0.00151355439725838,0.00165527989399545,0.0019222086589666,0.00334484168211909,0.000160509665115473
133,0.000517031630382541,0.00314562390610585,0.00284984035981222,-0.00510915643753784,0.00375033058126385,-0.00293140253582947,0.00232835423467444,-0.00444855260605262,0.00195662868133281,-0.00916777462908949,0.0149091984894698,0.0523142757465558,0.0212524635786889,-0.00116423694227313,0.00438438455302063,0.00156704503113858,0.00185821139040994,0.011710596533394,-0.000621999602930562,-0.000931601013856006,0.00402123891520382,0.0118575572437195,0.00179584515119438,-0.00132432850253784,0.000566203608873094,0.00148337188391365,0.00171636470742579,0.00194668154102522,0.00336395034123824,0.000254501677607949
134,0.000612467932641783,0.00315102290446026,0.00281620053698246,-0.00505234424863865,0.00400627462004407,-0.00286741532349974,0.00233331622722514,-0.00421175200715166,0.00195639230178941,-0.00927478859123933,0.0150053446601365,0.0519282728921377,0.0207585268975165,-0.00119742822177451,0.00463434656018809,0.00194598244024472,0.00203364964574656,0.0124077182926721,-0.000610030700307032,-0.000937763119199167,0.0041808479044584,0.0118301284559653,0.00183831378246882,-0.00102445528139907,0.000695094089259622,0.00147922336208967,0.00177967478157636,0.00194974963146996,0.00338122378291284,0.000353328531971936
135,0.000732561817802646,0.00316422967482428,0.00278127460880579,-0.00496887012669905,0.00425938754980411,-0.0027823296416158,0.00235260496186481,-0.00395358425549378,0.0019732451005069,-0.00938473848220585,0.0150784440447024,0.0515290676920335,0.0202772622572766,-0.00124392973093905,0.00490894778002421,0.00236596141700511,0.00220621248218522,0.0130927072924938,-0.000599134103734438,-0.000943074179068807,0.00433966441953723,0.0117793562688606,0.00189203664211404,-0.000718017330939136,0.000818967338557138,0.00150541042989744,0.00184438949819856,0.00193238604705646,0.00339635203427485,0.000455745389458423
136,0.000879183839067263,0.003183125581597,0.0027456863701359,-0.00485711316585813,0.00450765949982719,-0.00267696592542342,0.00238693402773634,-0.00367558066953623,0.00200846623031352,-0.00949689213531652,0.0151288944318363,0.05111858378136,0.019811485050693,-0.00130422471816491,0.00520749128296591,0.00282784548984677,0.00237444484930766,0.0137616672190466,-0.000587730797561222,-0.000946958568573638,0.00449768710697753,0.0117047197386339,0.00195803344459619,-0.000405545841580536,0.000935945924763562,0.00156635500162401,0.00190957483340808,0.00189604993734277,0.0034089802756399,0.000560364820655946
137,0.00105413941160902,0.00320545870099416,0.00271015235161551,-0.00471538488737294,0.00474903195169565,-0.00255247879796376,0.00243694526824289,-0.00337938688280507,0.00206321457028664,-0.00961032742585039,0.015157133331879,0.0506984786380625,0.0193642218387763,-0.00137861493417417,0.00552902773275398,0.00333217057380664,0.00253696666229775,0.0144108504815706,-0.000574034735173458,-0.000948825765139466,0.00465507177163322,0.0116057093982938,0.00203722893932467,-8.75574214379951E-05,0.00104418772335944,0.00166656464059278,0.0019741884274513,0.00184269948810489,0.00341871072443946,0.000665680707398672
138,0.00125915442945735,0.00322886949795272,0.00267548164078821,-0.0045419286411513,0.00498142662201438,-0.00241035695456475,0.00250320644415598,-0.00306673964115423,0.00213851902019461,-0.00972392815690478,0.0151636258894294,0.0502701342686756,0.0189387154649806,-0.00146719623370212,0.00587235847768051,0.0038791233436702,0.00269251161885516,0.0150367172398726,-0.000556061083952431,-0.000948074596098365,0.0048121525220455,0.0114818508255163,0.00213044190886822,0.000235448801315251,0.00114192822396714,0.00181059605682429,0.00203708730398538,0.00177479885423485,0.00342510554231465,0.000770097390055146
139,0.00149586288959934,0.00325092072590335,0.0026425753835058,-0.00433492014217263,0.00520277786056123,-0.0022524169140601,0.00258621026451308,-0.0027394430539223,0.00223527073027181,-0.00983638149237916,0.01514885355522,0.0498346526317944,0.0185384274483833,-0.0015698357420136,0.00623604241916528,0.00446852358394304,0.0028399682730801,0.0156359951355465,-0.000531637572368846,-0.000944097171400982,0.00496946294137295,0.0113327309820611,0.00223837598151886,0.000562993092672362,0.00122752593018655,0.0020030171810743,0.00209703834439294,0.00169531861515563,0.00342769081473969,0.000871963928647721
140,0.00176579694984466,0.00326913159745307,0.0026124260795481,-0.00409246936581605,0.00541106848055135,-0.00208079020569214,0.00268637487935157,-0.00239934465314431,0.00235421748980349,-0.00994617691301785,0.0151133037546969,0.0493928557390743,0.0181670372157942,-0.00168615107388915,0.0066184067489553,0.00509981093693678,0.00297842295440979,0.0162057389343973,-0.00049841892791979,-0.000936282401511427,0.00512775704240692,0.0111580268713682,0.00236161252576229,0.000894616028733885,0.00129951042141041,0.00224836824900835,0.00215273158026754,0.00160772941869049,0.00342596164003894,0.000969613238136473
141,0.00207037983072213,0.00328101619148016,0.00258611678881513,-0.0038126240442072,0.00560436886868345,-0.00189790363794033,0.00280404591006597,-0.00204831160263918,0.00249596048279711,-0.0100516066465131,0.0150574607635708,0.0489452902890103,0.0178284377667918,-0.00181549208536462,0.007017561600359,0.00577203641686797,0.00310720405869951,0.0167433892403611,-0.000453904349980625,-0.000924019013053879,0.00528802974148073,0.0109575359896862,0.00250060588098381,0.00122987843228538,0.00135663257224841,0.00255112234600957,0.00220279632091564,0.0015159885608755,0.00341938835022794,0.00106140574788143
142,0.00241092194684149,0.00328412597001857,0.00256482036470639,-0.00349337502021926,0.00578087914756532,-0.00170645238551934,0.00293950007331396,-0.00168820738394032,0.002660953599328,-0.0101507674984277,0.0149817979678212,0.0484922366051129,0.0175267274147352,-0.00195692562270307,0.00743141861151514,0.00648385899874579,0.00322592717962456,0.0172468294058344,-0.000395457915625192,-0.000906697989166622,0.00545153656146068,0.0107312079829518,0.00265568116081597,0.0015683603825215,0.00139791635469114,0.00291564587433148,0.0022458200832451,0.00142451933861481,0.00340742386989481,0.00114577712441881
143,0.00278862061970477,0.00327609617810316,0.00254979882951233,-0.00313266372488069,0.00593897408299211,-0.0015093657332728,0.00309295043320332,-0.00132086926921397,0.00284950546709402,-0.0102415639875153,0.0148867716482322,0.0480337215687977,0.017266197309141,-0.00210922370870306,0.00785771335012464,0.00723354752672112,0.00333454049261856,0.01771443974098,-0.000320331769671647,-0.0008837143771955,0.00561981224884328,0.0104791768682059,0.00282703484265766,0.00190965938296605,0.00142271158159636,0.00334615940966376,0.00228037023952832,0.00133818310836804,0.00338951220161081,0.00122128948703743
144,0.00320456368192484,0.0032546957935421,0.00254240300291565,-0.00272839204558483,0.00607725034468177,-0.00130976543000952,0.00326455329415749,-0.00094808687283875,0.00306178433953452,-0.0103217126671976,0.0147728163887751,0.0475695351602225,0.0170513145184385,-0.00227085557343824,0.00829403149966908,0.00801898811823683,0.00343336975146553,0.0181451481160942,-0.000225691903286135,-0.000854468422820414,0.00579468796481137,0.0102017931359247,0.00301473832884174,0.00225338780336145,0.00143074688877871,0.00384669941301982,0.00230501824504432,0.00126224408609831,0.00336509800748616,0.0012866854391719
145,0.00365973723228784,0.00321788058399557,0.00254407248910337,-0.00227843484448847,0.006194575643103,-0.00111091673040918,0.0034544167235165,-0.000571582053302983,0.00329782594485615,-0.0103887474947481,0.0146403421653834,0.0470992501498758,0.0168867005349417,-0.00243998389487292,0.00873783865718493,0.00883769716846483,0.00352316221037488,0.018538476057018,-0.000108646279091273,-0.000818366006547261,0.00597830668562145,0.00989965501937683,0.00321874463152826,0.00259916973948509,0.00142218219822072,0.00442108125526037,0.00231836625334976,0.00120232703026957,0.00333363723688879,0.00134094413745439
146,0.00415503774218904,0.00316384871877737,0.0025563361205688,-0.0017806553666622,0.00629013917893539,-0.000916172337468735,0.00366261066873879,-0.000192990415465514,0.00355754436475298,-0.010440026091354,0.0144897331282738,0.0466222444229963,0.0167771051538704,-0.00261446556457992,0.00918651354237933,0.00968683998478851,0.00360512874286985,0.0188945794542812,3.37249844431704E-05,-0.000774818375375242,0.00617313642476736,0.00957363819985743,0.00343889829454224,0.00294663745982318,0.00139765985796883,0.00507286399451653,0.00231907587276608,0.00116436805948844,0.00329460873044228,0.00138333852663402
147,0.00469128864682016,0.00309109827559649,0.00258081294745624,-0.00123292374388078,0.0063635027577153,-0.00072890959969977,0.00388917860927602,0.000186155360082844,0.00384074597274783,-0.0104727367198736,0.0143213480482848,0.0461377253711319,0.0167273757735507,-0.00279185723520443,0.00963738436741889,0.0105632550041193,0.00368098339412426,0.0192142830424806,0.000204337699838515,-0.000723241179055557,0.00638198086900394,0.00922492321302916,0.00367494862100953,0.00329542762921029,0.00135835361637226,0.00580531732036991,0.002305898764501,0.00115455896815247,0.00324752671060531,0.0014134927848115
148,0.00526926147931161,0.00299848588103847,0.0026192138502733,-0.000633138750673024,0.00641465184274256,-0.00055246146425731,0.00413415065819443,0.000564440158928463,0.00414714642006012,-0.0104839057929361,0.0141355223569481,0.0456447557531666,0.0167424222628272,-0.00296942583976261,0.0100877680661996,0.0114634834673475,0.00375297957651964,0.0194991078575379,0.000406070339958012,-0.000663052836370964,0.00660798700367583,0.00885501983200532,0.00392656622579635,0.00364517751647039,0.00130601456064834,0.00662139104229938,0.00227770873158631,0.00117928551590418,0.00319195404973944,0.00143143895187666
149,0.00588970152318538,0.00288528563065041,0.00267334384093917,2.07470968167494E-05,0.00644404574679725,-0.000390041837000472,0.00439755800393542,0.000940578871408934,0.00447639061177887,-0.0104704057121791,0.0139325716722686,0.0451422804137929,0.0168271776426997,-0.0031441641989605,0.010535012031406,0.0123838043461512,0.00382394210022851,0.019751290945935,0.00064172981882097,-0.000593672271923726,0.00685464929114963,0.0084657877274362,0.00419336287654736,0.00399552140543293,0.00124301313341098,0.00752368745349941,0.00223353489947877,0.00124506027847134,0.00312751618787011,0.00143767165690249
150,0.00655335786848062,0.00275124735234619,0.00274510510236894,0.000730699091801346,0.00645266610002718,-0.000244666150627724,0.0046794485588052,0.00131342648236665,0.00482807556790516,-0.0104289628300174,0.0137127966683984,0.04462915325131,0.0169865549308564,-0.0033128117523358,0.0109765379573651,0.0133202742389364,0.00389729422265952,0.0199737966814051,0.000914016766842133,-0.000514516077601928,0.00712580996079887,0.00805945274369777,0.00447491452679799,0.00434608743616814,0.00117237633674094,0.00851443684514078,0.00217259554471798,0.00135845075717809,0.00305391555456628,0.00143319981952777
151,0.00726101766051094,0.00259665320744966,0.00283650079994922,0.00149856862980536,0.00644206267974743,-0.000119068089846128,0.00497990365832929,0.00168198569808234,0.00520177601261272,-0.0103561653185333,0.0134764891182997,0.044104163848354,0.0172254005987375,-0.00347188036324953,0.0114098873369637,0.0142687718763244,0.0039770789037779,0.0201703191400058,0.00122549077327457,-0.000424995164724925,0.00742565497120053,0.00763861818314995,0.00477078737963678,0.00469649510558246,0.00109781924239151,0.00959547638148144,0.00209433208843758,0.00152600355044897,0.00297094633271022,0.00141959417768138
152,0.00801354422839844,0.00242237156878191,0.00294963967907655,0.00232605844951404,0.00641439564986017,-1.56135652454552E-05,0.0052990556347894,0.00204541203052251,0.00559707248115211,-0.0102484707261136,0.0132239389146662,0.0435660632175798,0.0175484451896475,-0.00361768505783231,0.0118327681123622,0.0152250468040145,0.00406797346983528,0.0203452750926719,0.00157853609368662,-0.000324510982335687,0.00775870521609519,0.00720627055694034,0.0050805667513474,0.00504635365325311,0.00102376994939992,0.0107682324744783,0.00199844273772132,0.00175416549116895,0.00287850938660096,0.00139902949058657
153,0.00881191867462676,0.00222990707640185,0.00308674144107336,0.00321468515243756,0.00637247323492588,6.37868377734547E-05,0.00563710606915016,0.00240301629596415,0.00601358167784211,-0.0101022130016409,0.0129554418561155,0.0430135881678113,0.0179602517416873,-0.00374637946526531,0.0122431019328728,0.0161847717437072,0.00417529691714376,0.0205037872934872,0.0019753283399618,-0.000212451383706187,0.00812980256620351,0.00676577934032735,0.005403888432216,0.00539526154910571,0.000955387167113814,0.0120337067197012,0.00188491523065139,0.00204920274671077,0.00277662716303153,0.0013743202826708
154,0.00965728439858574,0.00202144575048081,0.00325014286492745,0.00416573946502154,0.00631978384812601,0.000117765585071483,0.00599434450807943,0.00275426452465536,0.00645098876163754,-0.00991360876880989,0.0126713079730317,0.0424454838628791,0.0184651627492039,-0.00385399563264524,0.0126390714303854,0.0171435980725711,0.00430500913146722,0.0206516578699813,0.00241780268386938,-8.81862264295561E-05,0.00854409037001872,0.00632089036198729,0.00574047216731467,0.0057428072837946,0.000898569652683262,0.0133924653757807,0.00175405812118279,0.00241711896147661,0.00266545836190516,0.00134894903132662
155,0.0105509939186356,0.00179989403876137,0.00344230461418239,0.00518024484361739,0.00626052170476645,0.000145584635470227,0.00637116741669191,0.00309877531996079,0.00690908117933426,-0.00967876264002441,0.0123718701602414,0.0418605242229976,0.0190672464791944,-0.0039364877935823,0.0130191668845425,0.0180972138094817,0.00446370135861849,0.0207953317566502,0.0029076241119325,4.8937208737746E-05,0.00900698807902214,0.00587571255885319,0.0060901568048584,0.00608857164007566,0.000859956797512459,0.0148446322900061,0.00160653002835144,0.00286357359251974,0.00254531216281026,0.0013270857597315
156,0.0114946572512859,0.00156891069433932,0.00366581863691617,0.00625891516009316,0.00619960498468825,0.000147219046424615,0.00676809712285569,0.00343631474866427,0.00738778361230609,-0.00939367137096408,0.0120574928815734,0.0412575299044014,0.0197702435326459,-0.00398977957709206,0.0133822316179141,0.0190414034523202,0.00465857733908025,0.0209418502525142,0.00344616026828121,0.000199598898763822,0.00952415971729143,0.00543469793891012,0.00645293658521632,0.00643213159388288,0.000846919736979788,0.0163898850959492,0.0014433662713266,0.0033938016448948,0.002416661785962,0.00131359807528075
157,0.012490191005795,0.00133293041906508,0.00392341603237068,0.00740211234035731,0.00614268565881492,0.000123436119700438,0.00718580049536559,0.00376678888780406,0.00788719355247465,-0.00905422667389069,0.011728580713871,0.040635383683802,0.0205775146031066,-0.00400981405380932,0.0137275054370592,0.0199721089746287,0.00489742461482227,0.0210987949259059,0.00403445741258151,0.000364510784059328,0.010101475983197,0.00500261471192989,0.00682899797161784,0.00677306595728395,0.000867542451734666,0.0180274544383236,0.00126600231789102,0.0040125360527582,0.0022801571602662,0.00131405079459682
158,0.0135398672612842,0.0010971782693506,0.00421797522107983,0.00860980495589308,0.00609615016751239,7.586841337071E-05,0.00762510708608673,0.00409023419654982,0.00840761697838332,-0.00865621653054808,0.0113855865047596,0.0399930431663625,0.0214919904336813,-0.00399260593167076,0.0140546654197323,0.0208854912608844,0.00518857563048982,0.0212742222329921,0.00467322000124644,0.000544421432946132,0.0107449698528189,0.00458451367009675,0.00721875635603612,0.00711096283230297,0.000930592436688299,0.0197561259191651,0.00107629348942448,0.00472393397314729,0.00213663646822801,0.00133469441733213
159,0.0146463612148113,0.000867673905002447,0.00455253021726964,0.00988152888507267,0.00606711023134056,7.07892187314441E-06,0.00808702645542034,0.00440680592312392,0.00894960356367875,-0.0081953248742777,0.0110290189290447,0.0393295508255712,0.0225161250069039,-0.00393429513462255,0.0143638633425106,0.0217779912362592,0.00554085838374069,0.0214765893590446,0.00536279437148477,0.000740120608872719,0.0114607856516175,0.0041856880246208,0.00762289191283533,0.00744542889533963,0.0010454806348045,0.0215742444114643,0.000876530390649254,0.00553150826038034,0.00198713633729756,0.00138244185258558
160,0.0158127965260599,0.000651224868093633,0.00493027876411203,0.0112163512612609,0.00606338318731973,-7.93832710326045E-05,0.00857276439117858,0.0047167647956242,0.00951398081839771,-0.00766712954564966,0.0106594492426474,0.0386440414673746,0.0236518530172259,-0.00383120092726863,0.0146557590474591,0.0226463899275988,0.00596353652992867,0.0217146719315211,0.00610315696922246,0.000952443694771195,0.0122551216729132,0.00381162702872268,0.00804238382083186,0.00777610047744292,0.00122221046601422,0.0234797203550042,0.000669449567459319,0.00643806536899652,0.00183290045028928,0.00146483296284695
161,0.0170427872401759,0.000455408207866464,0.00535459005546579,0.0126128390027226,0.00609346137450191,-0.000178938528336325,0.00908373772310501,0.00502046228100139,0.0101018865383097,-0.00706709846623298,0.0102775170501514,0.0379357472868843,0.0249005526709304,-0.00367987568733337,0.0149315490615701,0.0234878666764764,0.00646623901295975,0.0219974743898902,0.00689390751382978,0.00118227593890411,0.0131341665481689,0.00346796384000792,0.00847854203378384,0.00810265634714738,0.00147131592569339,0.0254700376370373,0.000458238941207941,0.00744565089120958,0.00167538635394927,0.00158998666964897
162,0.0183404751469074,0.000288539919011829,0.0058290117333626,0.0140690332692815,0.00616647023930534,-0.000285944981164058,0.00962158742872607,0.00531832472784175,0.0107147989192608,-0.00639058402073559,0.00988393492204339,0.0372040007525874,0.0262630148311314,-0.00347715737795343,0.0151929898089136,0.0243000547120464,0.00705887947456101,0.022334133927103,0.00773426743548625,0.00143055649554058,0.0141040297131915,0.00316041819456621,0.00893303575225241,0.00842483204134713,0.00180378888044576,0.0275422626689655,0.000246537622882185,0.00855550387033736,0.00151627025472047,0.00176654056071074
163,0.0197105614327207,0.000159631833764125,0.00635727581984504,0.0155824312072098,0.00629211499121795,-0.000393681131864677,0.0101881897209527,0.00561083673574877,0.0113545636823513,-0.00563281568820581,0.00947949172035616,0.0364482356095639,0.0277394194746247,-0.00322021973458174,0.0154424147929079,0.0250810932812027,0.00775156588532051,0.0227338190398437,0.00862308385559925,0.0016982822415949,0.0151706664635435,0.00289473457936884,0.00940791773830562,0.00874243552738734,0.00223099584938565,0.0296930542991855,3.84297755440393E-05,0.00976802094421171,0.00135744960437256,0.00200357814794964
164,0.0211583315030664,7.83358017950554E-05,0.00694330321572256,0.0171499763225273,0.00648061581041445,-0.000494344099842148,0.0107856648040924,0.00589852411694528,0.0120234175526395,-0.00478889101778496,0.00906505451644363,0.0356679863389516,0.0293293203518202,-0.00290661915790725,0.0156827451749657,0.0258296755270073,0.00855450103915543,0.0232056238373033,0.00955883930757672,0.00198651135697968,0.0163397982483701,0.00267661669665743,0.00990564362027276,0.00905536391802019,0.0027645847244655,0.0319186742499885,-0.000161567731985325,0.0110827312620954,0.00120104329554011,0.00231054414655646
165,0.0226896718936955,5.48752037138237E-05,0.00759120637798035,0.0187680587604969,0.00674263178791148,-0.000579064700137889,0.0114163829832116,0.00618193683420143,0.012724007440109,-0.00385376510302872,0.00864156901169639,0.0348628864443026,0.0310316386406192,-0.00253433729562661,0.0159174932360521,0.0265450913048297,0.00947787475462196,0.0237584593592941,0.0105396673149308,0.00229636666207869,0.017616829010927,0.00251165911166331,0.0104290853587466,0.0093636209021127,0.00341638205128217,0.0342149978299113,-0.000348524053416003,0.0124982829854333,0.00104938930854279,0.00269714837433743
166,0.0243110782516008,9.99640709429754E-05,0.00830528977231372,0.0204325266636537,0.00708917396362102,-0.000637940338799746,0.0120829678129287,0.00646163231321026,0.013459404688383,-0.00282223877044768,0.00821005840070933,0.0340326659542152,0.0328446662604517,-0.00210181830284589,0.0161507582794503,0.0272272641309459,0.010531748827953,0.0244009432421463,0.011563373856642,0.00262903871072671,0.0190067585428225,0.00240527706062982,0.0109815380876966,0.009667334500194,0.00419828165986763,0.0365775247486295,-0.00051711955612177,0.0140124420276091,0.000905039676431923,0.00317325910456916
167,0.0260296534465148,0.000224714322806309,0.00909004768779619,0.0221387096315298,0.00753150801577235,-0.000660086470009062,0.0127882959767085,0.00673815953682245,0.0142331137857285,-0.00168894576215002,0.00777162064618049,0.0331771485320132,0.0347660793650159,-0.00160799979383059,0.0163872146163697,0.0278767814727012,0.011725935980232,0.0251412891432128,0.012627464656628,0.00298578864167358,0.0205140939740969,0.00236263546725234,0.0115667196058043,0.00996677470741697,0.00512212560096477,0.0390013899458073,-0.000661677456008167,0.0156221035120868,0.00077075266535824,0.00374878694146307
168,0.0278530949719854,0.000440531876136903,0.00995015899724692,0.0238814551130124,0.00808104734453969,-0.000633707090592375,0.0135354935976278,0.00701204433278262,0.0150490749757228,-0.000448339259031425,0.00732742416512761,0.0322962485650838,0.0367929623635253,-0.00105233653711234,0.0166320913710659,0.0284949176151911,0.0130698742310834,0.0259871973903522,0.0137291781361418,0.00336795079590493,0.0221427606696324,0.00238857827015598,0.0121887618725757,0.0102623705496567,0.00619957850511164,0.0414813744352092,-0.000776201770610337,0.0173233162338318,0.000649482102406794,0.00443356052167379
169,0.0297896709104209,0.000759002628473751,0.0108904784497674,0.0256551783290023,0.0087492374813064,-0.000546184451666026,0.0143279286974109,0.00728377626547016,0.0159116602625882,0.000905321840207668,0.0068787019564312,0.0313899685680323,0.0389218426332046,-0.000434816001847304,0.0168911439489491,0.0290836483792975,0.0145724983100527,0.0269457483601844,0.0148655237666292,0.00377693511148454,0.0238960139407958,0.00248755920026027,0.0128521939610338,0.0105547260535353,0.00744199663758592,0.0440119162584734,-0.000854421353568413,0.0191113201983617,0.000544363823206923,0.00523719557459608
170,0.0318481838691216,0.00119176955764617,0.011916024091644,0.0274539260521106,0.00954743294077213,-0.000384187849388803,0.0151691995433354,0.00755379753542895,0.0168256623790801,0.00237798639786654,0.00642674422994462,0.0304583971763739,0.0411487358840338,0.000244035064097892,0.0171706171295967,0.0296456570221088,0.0162421098807235,0.0280233001072496,0.0160333254581897,0.00421422931176927,0.0257763531059826,0.00266357516375928,0.0135619160336259,0.0108446346200705,0.00886029307007747,0.0465871217373204,-0.000889839659110372,0.0209805970895767,0.000458699256949596,0.00616895909466027
171,0.0340379224444908,0.0017504024128803,0.0130319604290012,0.0292714542664112,0.0104867678138579,-0.000133801022562153,0.016063118653469,0.0078224942780869,0.0177962763726283,0.0039758237145609,0.00597288962717021,0.0295017079346116,0.0434692019250463,0.0009831537547283,0.017477199876162,0.0301843307250625,0.0180862484976612,0.0292253917647913,0.0172292695178813,0.00468140090684631,0.0277854395405078,0.00292010338341745,0.0143231640404026,0.0111330912957669,0.0104648005279983,0.0492007773067037,-0.000875789769568645,0.0229249332859701,0.000395936216789574,0.00723763058621391
172,0.0363685999397279,0.00244626169021822,0.0142435769710597,0.0311013194000536,0.0115780215725288,0.000219332659881454,0.0170136922707778,0.00809019063504056,0.0188290735671586,0.00570523477188928,0.00551851515238637,0.0285201589995655,0.045878410365677,0.00178095445037417,0.0178179720924862,0.0307037471686121,0.0201115653384545,0.0305566542162575,0.0184499566152976,0.00518009903171238,0.0299240204400412,0.00326004342787093,0.0151414649884894,0.0114213024549427,0.0122651335985008,0.0518463623021484,-0.000805494104665983,0.0249374948101245,0.000359647018632187,0.00845136253110777
173,0.038850280247557,0.00329035878293813,0.0155562618276503,0.0329369824744452,0.0128314817201839,0.00068984838738702,0.0180250951670911,0.00835714594768009,0.0199299677720483,0.00757286133445044,0.00506502496051581,0.0275140937930501,0.048371215572351,0.00263535309081403,0.0182003437079332,0.0312086508049982,0.0223237018483546,0.0320207294944374,0.01969195710248,0.00571205614787154,0.0321918600770032,0.00368566521607764,0.0160225827989733,0.0117106924427904,0.0142700520960232,0.0545170631593036,-0.000672128121004254,0.0270109133645701,0.000353504110443731,0.00981754239549241
174,0.0414932910135651,0.00429321437104311,0.0169754700801403,0.0347719251543279,0.0142568050696086,0.00129248298515549,0.0191016406996981,0.00862355539382215,0.0211051737339035,0.00958559213641781,0.00461383817315986,0.0264839425538164,0.0509422399966032,0.003543802647436,0.0186319866257879,0.0317044185720237,0.0247271754992121,0.033620200302108,0.0209518689531031,0.00627908963747311,0.0345876803504449,0.00419856402302308,0.016972454950278,0.012002906779228,0.0164873274764076,0.0572057895589549,-0.000468887206751893,0.0291373823845268,0.000381253456689946,0.0113426586298515
175,0.0443081244161266,0.00546471725839465,0.0185066867028462,0.0365997763224791,0.0158628795607394,0.00204188473241593,0.0202477461170781,0.00888955435343467,0.0223611579589975,0.0117505653173571,0.00416637591624088,0.0254302246627714,0.0535859648030063,0.00450334001782753,0.0191207602317664,0.0321970149389806,0.0273252748936427,0.0353565309638977,0.0222263775132617,0.00688310332066269,0.0371091124118295,0.00479962343492543,0.0179971203034905,0.0122998115875652,0.0189236142636824,0.0599051931124285,-0.000189055882909291,0.0313087618311263,0.000446685987269409,0.0130321732190342
176,0.0473053261329224,0.00681398597783287,0.0201553838843121,0.0384144474499124,0.0176576886386089,0.00295241209933184,0.0214678931959136,0.00915522674949438,0.0237045821719165,0.0140751662251194,0.00372404779085498,0.0243535515524006,0.0562968265586419,0.00551064440839216,0.0196746313220507,0.0326929363386748,0.0301199664358222,0.0372300210136117,0.0235123161939963,0.00752608892730772,0.0397526610876628,0.00548898710967216,0.0191026387112277,0.0126034889875211,0.0215843285014449,0.0626076892263097,0.000173921658356221,0.0335166902631415,0.000553607486105809,0.0148904034012166
177,0.0504953733074089,0.00834923556027773,0.0219269726863979,0.0402102746957029,0.0196481802938441,0.00403792388720318,0.0227665843883476,0.00942061756453251,0.0251422398170726,0.0165670196766225,0.00328823800272008,0.0232546299642743,0.0590693186050726,0.00656210710396331,0.0203015894722161,0.0331991452140143,0.0331118147385448,0.0392397724946499,0.0248067271847725,0.0082101275534851,0.0425136837123996,0.00626604009356286,0.0202950032227465,0.0129162282771208,0.0244735352595309,0.0653054828076729,0.000626370713255534,0.035752702565744,0.00070580735991967,0.0169204151909973
178,0.0538885425755357,0.0100776519004488,0.0238267490853112,0.0419821653574566,0.0218401429202049,0.00531156353952383,0.0241482947648541,0.00968574968251602,0.0266809861524278,0.0192339757663323,0.00286029138475661,0.0221342652893564,0.0618980956216597,0.00765391235007352,0.021009559026053,0.0337229940907318,0.036299918839075,0.0413836719041717,0.0261069212284647,0.00893739113079202,0.0453863848304349,0.00712940033122198,0.0215800459086471,0.0132405128203775,0.0275938472130877,0.0679905984680404,0.00117431600634985,0.0380083515849212,0.000907026790968896,0.0191239313076971
179,0.0574947694567978,0.0120052761469904,0.0258598345628852,0.0437257460108517,0.0242380901624252,0.00678554064518817,0.0256174201519403,0.00995064514938207,0.0283276626274712,0.0220840883424918,0.00244149955187255,0.0209933647150765,0.0647780798070089,0.00878212889570997,0.0218063090330713,0.0342721402763324,0.0396818661513207,0.0436583875459901,0.0274105354730815,0.00971014393226771,0.0483638280250939,0.00807692088422782,0.0229633385330708,0.0135790026553863,0.0309463362633049,0.0706549158534404,0.00182341352127716,0.0402753318185173,0.00116092683697742,0.0215012560219516
180,0.0613235006471294,0.0141369014963564,0.0280311115574658,0.0454375094312094,0.0268451569099496,0.00847091287468666,0.0271782219827313,0.0102153508837628,0.0300890163787749,0.0251255853359112,0.00203308742717939,0.0198329399099084,0.0677045670532444,0.00994281156402205,0.0226993626017478,0.0348544519761022,0.0432537058870817,0.0460593828754365,0.0287155884044917,0.0105307441320363,0.0514379658879887,0.00910570324764319,0.0244500894943792,0.0139345129385761,0.0345304600863869,0.0732902106679765,0.00257888533904802,0.0425456032514568,0.00147105709529944,0.024051219289804
181,0.0653835409673515,0.0164759846762238,0.0303451542390871,0.0471149571885386,0.029663008535316,0.0103773717706463,0.0288347694998953,0.0104799688021991,0.0319716158146739,0.0283668302264108,0.00163620037501873,0.0186541089983777,0.0706733314643679,0.0111321120372119,0.0236959072585791,0.0354779068067202,0.0470099434336761,0.0485809462248908,0.0300205308683028,0.0114016454262495,0.0545996888583542,0.0102121220237125,0.026045038632085,0.0143099884435306,0.0383440053807138,0.0758882018696716,0.00344545858496474,0.0448115133953119,0.00184082559490803,0.0267711423431385
182,0.0696828969140977,0.0190245742647221,0.0328061552391381,0.0487567346573137,0.0326917653777115,0.0125130359509003,0.0305908800722723,0.0107446902505652,0.033981763393701,0.0318162740666322,0.0012518921687162,0.0174580976136231,0.0736807265730701,0.0123463978611458,0.0248027080068247,0.0361504838733989,0.050943556879479,0.051216237094745,0.0313242922076884,0.0123253987101608,0.0578388933453054,0.0113918610793542,0.0277523516541068,0.0147084744352096,0.0423830494332753,0.0784406054021313,0.00442730954677735,0.047065915602333,0.00227347061748854,0.0296568266493318
183,0.0742286189263893,0.0217832578067328,0.0354178491356289,0.0503627550913178,0.0359299443311949,0.0148842553708409,0.0324500585072228,0.0110098345558902,0.036125406826606,0.0354823976494135,0.000881114010153379,0.0162462388566952,0.0767237816379249,0.0135823784964578,0.0260260248594113,0.0368800507542167,0.055046036534899,0.053957348984367,0.0326263205765418,0.0133046537900006,0.0611445692044801,0.0126399611790736,0.0295755160706576,0.0151330843408834,0.0466419414473942,0.0809391946872323,0.00552801396564784,0.0493022817719449,0.00277203517630407,0.0327025678435816
184,0.0790266446183175,0.0247511294596241,0.038183433666456,0.0519343093903005,0.0393744192130352,0.0174954303274971,0.0344154363584576,0.0112758914310165,0.0384080500456167,0.0393736436003981,0.000524704804105982,0.0150199720372695,0.0798002914534665,0.0148372370677179,0.02737153667373,0.0376742469022555,0.0593074479081011,0.0567953885237148,0.0339266165325274,0.01434216108881,0.0645049062841658,0.0139508789477504,0.0315172406262392,0.0155869647360507,0.0511133048662663,0.0833758679469176,0.00675050441843435,0.0515148076527861,0.00333934489718928,0.0359011958776266
185,0.0840816453363132,0.0279257796309884,0.0411054898101011,0.0534741582364459,0.0430204013616713,0.0203488488658391,0.0364897123419835,0.0115435668796671,0.0408346653828798,0.0434983383994799,0.000183382872692617,0.0137808401155007,0.0829088981789516,0.0161087662927248,0.0288442731380275,0.038540365129462,0.0637165181683839,0.059720570450642,0.0352257590709822,0.0154407732830074,0.0679074193959803,0.0153185568788675,0.0335793602968881,0.0160732582555909,0.055788061692027,0.0857427222508462,0.00809703560581589,0.0536985090633615,0.00397799004866841,0.0392441422223584
186,0.0893968784788802,0.0313033077642998,0.0441859020315443,0.0549866034106896,0.046861441648318,0.0234445461634553,0.0386750950781635,0.0118138321628937,0.0434096084781103,0.0478646045808628,-0.000142260726005058,0.012530485806609,0.0860491637885056,0.0173955069128072,0.030448556746185,0.0394852329732958,0.068260745673496,0.0627223277633107,0.0365249233270119,0.0166034467821988,0.0713390907130322,0.016736503964163,0.0357627489642646,0.0165950651259952,0.0606554795382196,0.088032134005583,0.00956915823742961,0.0558493075054327,0.00469031245651533,0.0427215345136861
187,0.0949740480679216,0.0348783590897355,0.0474257801360533,0.0564775353154307,0.0508894547843261,0.0267801893183699,0.0409732494722708,0.0120879753010838,0.0461365374886725,0.0524802636294956,-0.00045176713619416,0.0112706463471899,0.0892216318676144,0.0186968867952043,0.0321879565468154,0.0405150958660516,0.0729265316600777,0.0657894361631024,0.0378258892489454,0.0178332429401603,0.0747865282647651,0.0181978863820869,0.0380672418902986,0.0171554040922965,0.0657032418642941,0.0902368454143254,0.0111677020645146,0.0579641038212048,0.00547839801097947,0.0463223185462933
188,0.100813176083384,0.0386441857919994,0.0508253842991829,0.0579544540319541,0.0550947664715941,0.0303509907423928,0.0433852481252139,0.0123676545003136,0.0490183381993388,0.057352730377831,-0.000744812789383292,0.0100031469551505,0.0924278776305347,0.0200133587432137,0.0340652553613941,0.0416355041252549,0.0776993327103771,0.0689101516928368,0.0391310406316634,0.019133328862074,0.0782361388904956,0.0196956275471056,0.0404915700952055,0.017757173581619,0.0709175415234508,0.0923500562475196,0.0128927684549412,0.060040838742109,0.00634407543153809,0.0500344070048706
189,0.106912487064783,0.0425927326602982,0.0543840549408659,0.0594264616257673,0.0594661835794335,0.0341496530662286,0.0459115292258597,0.012654952809499,0.0520570566204416,0.062488900005769,-0.00102121055826181,0.00872989304431796,0.0956705452115473,0.0213465349316321,0.0360824320330117,0.0428512058598872,0.0825638321265205,0.0720723602704901,0.0404433539940001,0.0205069776542864,0.0816743137379702,0.0212225166923626,0.0430333086870205,0.0184031140020673,0.0762831974094823,0.0943655200773946,0.014743732737614,0.0620785393871776,0.00728892189381164,0.0538448537843258
190,0.113268308440594,0.046714746883063,0.058100149177353,0.0609042238763326,0.0639910871427661,0.0381663480916899,0.0485518624122359,0.0129524332372482,0.0552538406199564,0.0678950290503647,-0.00128090893648756,0.00745286128103878,0.0989533714901005,0.0226993157863973,0.0382406600917302,0.0441660479395078,0.0875041278799555,0.0752637376233794,0.0417663768918929,0.0219575679502688,0.0850876241509724,0.0227713250369371,0.0456888411012339,0.0190957721185007,0.0817837936152432,0.0962776439465451,0.0167192563659469,0.0640773509866287,0.00831427604581238,0.057740052197739
191,0.11987498896473,0.0509999112369438,0.0619709856098539,0.0623999001426442,0.0686555475690365,0.0423887318823372,0.0513053240967906,0.0132631934865808,0.0586088920565226,0.0735766121301935,-0.00152398923822349,0.00617408959423293,0.102281195943791,0.0240760110501816,0.0405403240048466,0.0455828871996342,0.0925039343720703,0.0784719179463827,0.0431041953802713,0.0234885825417566,0.0884630255809249,0.0243349284778038,0.0484533410829489,0.0198374684726947,0.0874018401181179,0.0980815902654594,0.0188173087665646,0.0660385533261922,0.00942125884575836,0.0617059548130364
192,0.126724837513272,0.055436999501666,0.0659927991875011,0.0639270406748121,0.0734444610222675,0.046801997571273,0.0541702837272521,0.0135909194042271,0.0621214307672498,0.0795382563701,-0.00175066084895079,0.00489566627291555,0.105659956279477,0.0254824507216362,0.0429810539218464,0.0471035140546783,0.0975467948547968,0.0816846694451858,0.0444613904742686,0.0251036059480595,0.0917880669805759,0.0259064356466267,0.0513207740791722,0.020630268821388,0.0931189535924026,0.0997733795701328,0.021035198553183,0.0679645616259798,0.0106108025412117,0.065728312107334
193,0.13380808431957,0.0600140525159294,0.0701607078114364,0.0655004513351443,0.0783417055319314,0.0513889668914803,0.0571444023964514,0.0139399361921144,0.0657896716183776,0.0857835557627057,-0.00196125459663491,0.00361971830653511,0.109096669864849,0.0269260835266609,0.0455617795262547,0.0487285906565478,0.102616301027282,0.0848900747868273,0.0458429836167117,0.0268063207693118,0.095051102992638,0.0274793200828009,0.0542839195032632,0.0214759605488058,0.0989160565241418,0.101349992623245,0.023369613600959,0.0698589117817169,0.0118836879795229,0.0697929265937527
194,0.141112866498433,0.0647185728822357,0.0744686922255977,0.0671360263897472,0.0833303149634526,0.0561302208111035,0.0602246451195331,0.0143152563953608,0.0696108156515319,0.0923149679115344,-0.00215621434868977,0.00234839914384453,0.112599401261535,0.02841606057721,0.048280803272155,0.0504576056693549,0.10769631605422,0.0880767143692764,0.0472543713359426,0.0286005026904516,0.0982415061328185,0.0290475551960474,0.0573344150854708,0.0223760349679923,0.104773592382844,0.102809470216218,0.0258166692982038,0.0717262301046555,0.0132405902931864,0.0738859185724414
195,0.148625239428757,0.0695377359389306,0.078909590569548,0.0688505507610778,0.0883926685992635,0.061004268997262,0.0634073079641049,0.0147226236670525,0.0735810561572512,0.0991336957571776,-0.0023360869743633,0.00108387606542123,0.116177216435962,0.0299633018988012,0.0511358929145067,0.0522888476248955,0.112771197049476,0.0912338502424916,0.0487012494767174,0.0304900140313758,0.101349876085598,0.0306057506233268,0.0604628242319142,0.0233316763560923,0.110671754200965,0.104151008930556,0.0283719641250503,0.0735721878994901,0.0146821328420407,0.0779939991995401
