,0,1,2,3,4,5,6,7,8,9,10,11,12,13,14,15,16,17,18,19,20,21,22,23,24,25,26,27,28,29
0,0.00715531654117926,0.0214682667393694,-0.00541550806646257,0.0116829605731019,0.0160157071001752,-0.00996927975872666,-0.0712157212703887,0.0121585510842671,0.013005235490758,0.00356016231040093,-0.000136567347967654,1.24583528866961E-05,-0.0140892395373384,0.027250686860836,-0.00668411523108732,0.0113752480725624,-0.0208387979252686,0.0272776672442483,-0.0177968287533115,-0.00421402136452483,-0.010854100642874,0.0172945458989212,0.019633738544359,-0.00963314132417385,0.0156077367978429,0.00606479640612307,-0.00668594571625325,0.00391032992803564,0.00168138379655215,-0.00935804848887915
1,0.00736198557535579,0.0209187090955914,-0.00496757384145932,0.0116445581415218,0.0165379846147895,-0.00995600655104614,-0.071399096980876,0.0112719224934933,0.0130271618625638,0.00360409288649458,-0.000103070359285264,-0.000131227675411011,-0.0130453253469584,0.0263902518403702,-0.00522834559110166,0.0120867866289885,-0.0207249766307445,0.0275004788198428,-0.0168679841923923,-0.00434363672080958,-0.0099847056283239,0.0169938329507183,0.0194641043518175,-0.00926311465001095,0.0152992093692675,0.00647496269696758,-0.00640377197365065,0.00337140690592973,0.00174955284436129,-0.00872827300245182
2,0.00756791538978545,0.0203651727871058,-0.00449324675416703,0.0115990986351835,0.0170573903571007,-0.00989817457339977,-0.0715738660376726,0.0103952034594047,0.013039453075041,0.0036247257138624,-7.23469166083255E-05,-0.00027201829400604,-0.0119946011378423,0.0255090698086694,-0.00376227163211536,0.0127981381386085,-0.0205898931421918,0.0277139813774099,-0.0159341021453989,-0.00446849319667453,-0.00910441742207136,0.0166951957377609,0.0192677195306425,-0.00889415357608964,0.0149645595020745,0.00689228757814272,-0.00611123343472396,0.00280058263875647,0.00183099432233328,-0.0081002712558868
3,0.00777108593422379,0.0198088897653033,-0.0039911587525798,0.0115468222638526,0.0175698598605027,-0.00979225968556978,-0.0717331633220631,0.00953277784349347,0.0130392642301128,0.00362246788111113,-4.45827258817015E-05,-0.00040884003822621,-0.0109411709793934,0.0246097887481693,-0.00229186196941592,0.0135054052715398,-0.0204318825943911,0.0279138016316836,-0.0149982840595251,-0.00458687040360017,-0.0082156231123227,0.0163996204055336,0.019042339006104,-0.00852736204099605,0.0146016228240027,0.00731528549009451,-0.00580765656383151,0.00219814540358213,0.00192709643609309,-0.00747580357316516
4,0.0079694502220189,0.0192509363177859,-0.00346001066830542,0.0114881604478801,0.0180713006351301,-0.00963517721376872,-0.0718696621948874,0.00868878178517479,0.0130236172399777,0.00359809384726313,-1.99426311330066E-05,-0.000540650979710681,-0.00988919409710369,0.0236952113904557,-0.000823093802794874,0.014204581131522,-0.0202494528824556,0.0280953025280002,-0.0140636172787209,-0.00469698086670107,-0.00732079559781943,0.0161080616136821,0.0187858841240288,-0.00816381274044372,0.0142083926468247,0.0077423989944299,-0.00549232987605282,0.00156464180966187,0.00203927463766457,-0.00685652054616925
5,0.00816095523981172,0.0186922162668587,-0.00289860089875595,0.0114237409151135,0.0185576410055871,-0.00942434124732976,-0.0719756364561137,0.00786705283908098,0.0129894352202138,0.00355275075451237,1.43287202530746E-06,-0.000666453687490656,-0.00884285390448916,0.0227682876747794,0.000638090738681206,0.0148915812163476,-0.0200413122711525,0.028253616670395,-0.0131331515490648,-0.00479698490486695,-0.00642248013352866,0.0158214350086668,0.01849648051469,-0.00780453956037547,0.0137830601090954,0.00817200701509778,-0.00516451827754224,0.000900891145871421,0.0021689591815437,-0.00624394852123996
6,0.00834356220578963,0.0181334477423983,-0.00230585465049675,0.0113543887292887,0.0190248801111368,-0.00915771653399365,-0.0720430303084518,0.00707108465290248,0.0129335812156654,0.00348795884437187,1.94314450059329E-05,-0.000785307451599262,-0.00780632674690222,0.021832108110882,0.00208582482186847,0.0155622777451605,-0.0198063936508321,0.0283836846260957,-0.0122098759588596,-0.00488500693050948,-0.00552327867493524,0.0155406095564171,0.0181724939646022,-0.00745053011117778,0.0133240517545657,0.00860243350511282,-0.00482347962346244,0.00020799748782293,0.00231758124264332,-0.00563947683338885
7,0.00851526585292296,0.0175751538823321,-0.00168085320096389,0.011281122995769,0.0194691384420704,-0.00883386170123318,-0.07206353570316,0.00630398804401708,0.0128529009340061,0.00340560674725227,3.39730130269238E-05,-0.000896339550633515,-0.00678375063033549,0.020889898153519,0.00351435314692097,0.0162125361019299,-0.0195438748290336,0.0284802978724562,-0.0112966964989513,-0.00495915301983419,-0.00462583197463909,0.015266399742161,0.017812563594376,-0.00710271837964142,0.0128300637158033,0.00903195648848675,-0.00446848329883703,-0.000512640806810352,0.0024865576936997,-0.00504434695103539
8,0.00867411246822272,0.0170176577397015,-0.0010228626190826,0.0112051490888436,0.019886708257731,-0.00845196269282074,-0.0720286763305179,0.00556845920352764,0.0127442690593007,0.00330794146595307,4.50141258688546E-05,-0.000998755366670508,-0.00577919420808466,0.0199450136383833,0.00491806375389773,0.0168382530894565,-0.0192531943454146,0.0285381460662787,-0.0103964144310357,-0.00501752957715606,-0.00373279947310169,0.0149995576724134,0.0174156316884418,-0.00676197753029706,0.0123000917539536,0.00945881743491724,-0.00409883055631728,-0.00125932457710919,0.00267727468986167,-0.00445964368483056
9,0.00881821648305761,0.0164610815926743,-0.000331361378841067,0.011127846350352,0.0202741032111644,-0.0080118555042289,-0.0719298974080806,0.00486675560901421,0.0126046386162404,0.00319755292864447,5.25525072802561E-05,-0.00109184717739332,-0.00479662629842808,0.0190009372707384,0.0062915150821347,0.0174353966340195,-0.0189340624113416,0.0285518682301374,-0.00951170565544632,-0.00505826289031313,-0.00284683712089599,0.0147407651432225,0.0169809695871251,-0.00642911290488713,0.0117334565084014,0.00988123093070523,-0.00371387627662116,-0.0020300506547525,0.00289107025676286,-0.00388628860379945
10,0.00894577548022094,0.0159053507651966,0.000393933696533974,0.0110507513194166,0.020628106494071,-0.0075140375228,-0.0717586603178633,0.00420068006484706,0.012431092758056,0.003077353047078,5.66317064668275E-05,-0.0011750014853025,-0.003839886207755,0.0180612761017393,0.00762945810178477,0.0180000465287013,-0.0185864667002468,0.0285161073681367,-0.00864510127470976,-0.00507951934899414,-0.00197057336870538,0.0144906257671902,0.0165081991316921,-0.00610485528698529,0.0111298234309991,0.0102973946120725,-0.00331305175507284,-0.0028225122886282,0.00312921612227722,-0.0033250357895718
11,0.00905508355731658,0.015350201973794,0.00115304370857114,0.010975536665374,0.0209458168150155,-0.00695966702335025,-0.071506541049946,0.00357157311425601,0.0122208982604947,0.0029505492820561,5.73457446337745E-05,-0.00124770477647442,-0.00291265513555327,0.0171297598753689,0.00892685347954278,0.0185284357546863,-0.018210672846741,0.0284255679468085,-0.00779896955412941,-0.00507952607417223,-0.00110658365959463,0.014249657277705,0.015997309246317,-0.00578985451694725,0.0104892170143879,0.0107054993259269,-0.00289588806345792,-0.00363410346630097,0.00339289906869026,-0.00277647004383372
12,0.00914454305929037,0.01479519612277,0.00194570670102725,0.0109039861086946,0.0212246915345837,-0.00635055063083142,-0.0711653313254234,0.00298031388419545,0.0119715599234543,0.00282061279217025,5.4843630813421E-05,-0.00130954763545601,-0.00201842893933849,0.0162102400827115,0.010178883886591,0.0190169918755613,-0.0178072196476582,0.0282750756077103,-0.00697549948428803,-0.00505659168537819,-0.000257363851847167,0.0140182841506241,0.0154486673446129,-0.00548467355912285,0.00981202906791347,0.0111037394782935,-0.00246203949194434,-0.00446192734420824,0.00368320210926622,-0.00224100764443161
13,0.00921267476165105,0.0142397353778086,0.00277135991287176,0.0108379657256451,0.0214625863032675,-0.00568911883238764,-0.070727141196735,0.00242732923690971,0.0116808750132723,0.00269124132501631,4.93336052239923E-05,-0.0013602271775955,-0.00116049253743605,0.0153066895208724,0.0113809617020564,0.0194623779611934,-0.0173769090929707,0.0280596384184987,-0.00617668615074203,-0.00500912691401344,0.00057469691384293,0.0137968306998091,0.0148630253591814,-0.00518978313716166,0.00909902094250423,0.0114903235228319,-0.00201130654221799,-0.00530280893041523,0.0040010858102372,-0.00171889972100277
14,0.00925812664647625,0.0136830842586499,0.00362912571563308,0.0107793921388579,0.0216577905800397,-0.00497838989498252,-0.0701845018586877,0.00191261091617497,0.0113469868241641,0.0025663171033463,4.10869561887232E-05,-0.00139954779454789,-0.000341896223761129,0.0144232021217297,0.012528732504905,0.0198615324668488,-0.0169207914851012,0.0277745089201975,-0.00540431811127278,-0.00493566475624954,0.0013873433155129,0.013585514812197,0.0142415203070596,-0.00490555706295666,0.00835131975231554,0.0118634845322423,-0.001543657920907,-0.0061533120854617,0.00434737008615525,-0.00121023829089119
15,0.00927968146269637,0.0131243944069045,0.00451780163059789,0.0107301981941565,0.021809058449721,-0.00422192281502149,-0.0695304673493773,0.00143574019704933,0.0109684363983795,0.00244986006151794,3.04412491155443E-05,-0.00142742024211731,0.000434565840305227,0.0135639927910713,0.0136180748760621,0.0202117074718971,-0.016440146027915,0.027415246191029,-0.00465996696916759,-0.00483487984934716,0.00217848027421252,0.0133844424897187,0.0135856694184196,-0.00463226838919345,0.00757040878098627,0.01222149078516,-0.00105925097211208,-0.00700976082054397,0.00472271679415955,-0.000714964959892607
16,0.00927626329827971,0.0125627326070885,0.00543585475743578,0.0106922968097506,0.0219156342029283,-0.00342376018636501,-0.0687587137773899,0.00099591938131998,0.0105442114224644,0.00234597689833837,1.78028039146227E-05,-0.00144385913132946,0.00116637470759341,0.0127333969814303,0.0146450971456441,0.0205105046729192,-0.0159364573781447,0.0269777771220862,-0.00394497931111216,-0.00470560675144842,0.00294619801757262,0.0131936033592555,0.0128973599670324,-0.00437008651390503,0.00675811238969851,0.0125626562914807,-0.000558449989492169,-0.00786826478080623,0.00512761344221143,-0.000232882249899704
17,0.00924694341362813,0.0119971115693329,0.00638142087099138,0.010667543753084,0.0219772721916814,-0.00258836211632675,-0.0678636346811178,0.000592009332289876,0.0100737913125102,0.00225880652788363,3.64826095704118E-06,-0.00144897891303995,0.00185130307446598,0.0119358697116914,0.0156061318131191,0.0207559085303556,-0.0154113887491369,0.0264584560876039,-0.00326047115024956,-0.0045468568078031,0.00368879508261677,0.0130128672985136,0.0121788340458042,-0.00411907535768682,0.0059165758594734,0.0128853511708119,-4.18418619191407E-05,-0.00872474870802821,0.00556235830898806,0.00023633253276059
18,0.00919094559234174,0.0114265229223853,0.0073523083571109,0.0106577001496599,0.0219942505255729,-0.00172053253958414,-0.0668404311093808,0.000222572117140012,0.00955718751522659,0.00219246262606986,-1.1474914616245E-05,-0.00144298847292178,0.00248742886344349,0.0111759837425563,0.0164977284374523,0.0209463159874671,-0.0148667522370822,0.0258541221927302,-0.00260732497947503,-0.00435783329639279,0.00440479856645362,0.0128419823062246,0.0114326686265504,-0.00387919272068487,0.00504824069878254,0.0131880117925165,0.000489751467621986,-0.00957498558480829,0.006027047250098,0.000693111027421456
19,0.00910765125763748,0.0108499718165158,0.0083460070617961,0.0106643955545897,0.0219673782277299,-0.000825339471838786,-0.0656851950121419,-0.000114082273227077,0.00899497808484785,0.00215097408295509,-2.69491249222742E-05,-0.00142618447689174,0.00307314580430895,0.0104584266182314,0.017316645837388,0.0210805622158083,-0.0143044771012675,0.0251621532945007,-0.00198618949832738,-0.00413794456311287,0.00509298096809962,0.0126805737206961,0.0106617513278874,-0.00365029090804147,0.0041558160279487,0.0134691505819842,0.00103526421214735,-0.0104146330746971,0.00652156243781205,0.00113797534248397
20,0.00899660458049272,0.0102665124984989,0.0093597020218566,0.0106890924201484,0.021897995527406,9.19690964880158E-05,-0.0643949845490532,-0.000419846225830373,0.00838833564896394,0.00213822427382433,-4.20886415462448E-05,-0.00139894362661729,0.00360717090554191,0.00978799629012459,0.0180598444576198,0.021157941891889,-0.0137265767709975,0.0243805160170582,-0.00139748203041461,-0.00388681488094264,0.00575237302461856,0.012528144862675,0.00986925238683195,-0.00343211869045586,0.00324224671295095,0.0137273653964381,0.00159338205130657,-0.0112392727925696,0.00704556325090508,0.00157151762341815
21,0.00885751776964161,0.00967528419558324,0.0103902919318245,0.0107330527711349,0.0217879670283168,0.0010260518458451,-0.062967889965461,-0.00069676296636034,0.00773904794985085,0.00215789015069792,-5.61430062668481E-05,-0.00136171400048506,0.0040885487605351,0.00916959504689273,0.0187244797444687,0.0211782255733323,-0.0131351153720534,0.0235078110197542,-0.000841393598781168,-0.00360429279863206,0.00638227202779093,0.0123840791478435,0.00905859338671713,-0.00322432464231324,0.00231067896261435,0.0139613483746593,0.00216254191053398,-0.0120444518692276,0.00759847949875632,0.00199437797130101
22,0.00869027668490606,0.009075546632739,0.0114344120847826,0.0107973078550394,0.0216396675604658,0.00197156141351383,-0.0614030887539767,-0.000946974325603315,0.00704953024175111,0.00221338222470287,-6.83018892216588E-05,-0.001315005667167,0.00451665268995516,0.00860822148598739,0.0193078973355814,0.0211416708170699,-0.012532174565075,0.0225433128260911,-0.000317896575668612,-0.0032904567819843,0.00698224521015742,0.0122476436820849,0.00823341333483933,-0.00302646187474455,0.00136442412460097,0.0141698941681837,0.00274093650085754,-0.0128257262155424,0.00817950713050008,0.00240722106841572
23,0.00849494685570167,0.00846671450782931,0.0124884614087487,0.0108826314672718,0.021455960600084,0.00292323038832503,-0.059700888918032,-0.00117266893865252,0.00632282893799758,0.0023077865539217,-7.77014309247266E-05,-0.00125938076658429,0.00489118278086577,0.00810896027421555,0.0198076308037393,0.0210490277641523,-0.0119198214679111,0.0214870035816913,0.000173245227479159,-0.0029456179942263,0.00755212790730394,0.0121179943201049,0.00739753270641327,-0.00283799415596157,0.00040692141736531,0.0143519074665093,0.00332652382419738,-0.0135787048455037,0.00878760654607095,0.00281071191178058
24,0.00827177991845049,0.00784839026271418,0.0135486331109516,0.0109895175647828,0.0212401692293466,0.00387595409754291,-0.0578627592843701,-0.00137603195788414,0.00556261603308803,0.00244380986700652,-8.34320596845034E-05,-0.00119544325657083,0.00521216094255421,0.00767696945824957,0.0202214026075093,0.0209015390029155,-0.0113000783948651,0.0203396001795428,0.000632464212327026,-0.00257032011032429,0.00809201633220192,0.0119941821365873,0.00655491607587771,-0.00265830338682664,-0.000558299682008676,0.0145064097354679,0.00391704175166563,-0.0142990945850774,0.0094215035910542,0.00320549109180448
25,0.00802122041335579,0.0072203945143165,0.0146109483453593,0.0111181626766778,0.0209960397065266,0.00482486833273612,-0.0558913459756005,-0.00155919728987951,0.00477317397118473,0.00262372893755373,-8.45477394780012E-05,-0.00112382852285613,0.00547992315588953,0.007317465100266,0.020547128794081,0.0207009336119692,-0.0106748950889282,0.0191025742694242,0.00106037461531378,-0.00216533611210436,0.00860225493282555,0.0118751612305902,0.00570963394203309,-0.00248669837607057,-0.00152765670919432,0.0146325450962344,0.00451002767692087,-0.0149827444753872,0.0100796932804231,0.00359215008030069
26,0.00774391280637103,0.00658279354757652,0.0156712922389666,0.0112684535008907,0.0207276978294952,0.00576542027210466,-0.0537904743519466,-0.00172420327336432,0.00395937079101436,0.00284934527720501,-8.00765659573779E-05,-0.00104519304518886,0.00569510914497805,0.00703570302924771,0.0207829278755785,0.0204494153742767,-0.0100461240495533,0.0177781647544183,0.00145775636476904,-0.00173166206501118,0.00908341844175175,0.0117597977600891,0.00486582432081864,-0.00232242483687129,-0.00249755050940458,0.0147295852827041,0.00510284313527902,-0.0156256891750384,0.0107604462564668,0.0039712070091294
27,0.00744070853023534,0.00593592332086447,0.0167254515530284,0.0114399599455346,0.0204395984012466,0.00669343101181151,-0.0515651359620492,-0.00187295260258929,0.00312662554482885,0.00312194613759919,-6.90325908089146E-05,-0.000960204303686844,0.00585864974460359,0.00683695751592756,0.0209271341631284,0.0201496452411784,-0.00941549946952272,0.0163693824696331,0.00182553747212469,-0.00127050793144213,0.00953628886172685,0.011646880085643,0.00402765463119867,-0.00216467650460903,-0.00346439999059808,0.0147969336274459,0.00569270316455617,-0.0162241906779227,0.0114618179426868,0.00434308342757935
28,0.00711267277298952,0.00528040949253066,0.0177691532185348,0.0116319337368157,0.0201364682440506,0.00760514831428429,-0.0492214603035331,-0.00200717717161513,0.00228086416327932,0.00344227270503364,-5.04287180549459E-05,-0.000869531097141755,0.00597175227263353,0.00672649670071888,0.0209783156969015,0.0198047182087161,-0.00878462019192241,0.014880006835698,0.00216477528119685,-0.000783285528117137,0.00996182776023407,0.0115351298904712,0.0031992843395341,-0.00201260725454811,-0.00442467483998757,0.0148341280413117,0.00627671006822748,-0.0167747776897659,0.0121816603079518,0.00470808252333123
29,0.00676109068685925,0.00461718304361147,0.0187981029715981,0.0118433125775947,0.0198232433556592,0.00849728841230154,-0.046766671480734,-0.0021284083733313,0.0014284661162102,0.0038104962404214,-2.32904810594518E-05,-0.000773834429467684,0.00603588424192969,0.00670955463197863,0.0209352967591252,0.0194181348468521,-0.00815493698498208,0.0133145743813292,0.00247663691727874,-0.00027159378456799,0.010361144365454,0.0114232141383137,0.00238482876079531,-0.00186534407809401,-0.0053749257942381,0.0148408429690297,0.00685189112826906,-0.0172742820485699,0.0129176361043289,0.00506636927857427
30,0.00638747264776734,0.00394749114512832,0.019808023324371,0.0120727297071608,0.0195050009516532,0.00936706596857188,-0.0442090301534666,-0.00223795323680174,0.000576202398720273,0.0042262027648185,1.33295230494223E-05,-0.000673759102306564,0.00605275576047759,0.00679129980987205,0.0207971848042432,0.0189937677946531,-0.00752774431228821,0.011678359134191,0.00276237928788942,0.000262798494235965,0.0107354600630463,0.0113097577292496,0.00158832434600265,-0.00172200075736865,-0.00631181214115808,0.0148168903224219,0.0074152397069442,-0.0177198716297429,0.0136672353892657,0.005417953009493
31,0.00599355816862399,0.00327290299773447,0.0207946901407302,0.0123185285885679,0.0191868872863842,0.0102122115756513,-0.0415577614890587,-0.00233687663223158,-0.000268834450991067,0.00468838672155677,6.0336793164745E-05,-0.000569926131603814,0.00602430097100326,0.00697680018207817,0.0205634014891012,0.0185358236011823,-0.00690417665281652,0.00997734498597365,0.00302332898959751,0.00081797211618485,0.0110860699862105,0.0111933567158138,0.00081369571873683,-0.00158169206043478,-0.00723212621811413,0.0147622194137548,0.007963759076803,-0.0181090792441878,0.0144277940905575,0.00576267270367658
32,0.00558131806022624,0.00259531045529748,0.0217539671428968,0.0125787823390947,0.0188740422846111,0.0110309764841026,-0.0388229701502326,-0.00242598961946557,-0.00109930742457275,0.00519545386393416,0.000118579953618057,-0.000462926084381982,0.00595265887230325,0.00727098460352611,0.0202337173389428,0.0180488003528277,-0.00628520930349468,0.00821819024426735,0.00326086247071106,0.0013918789584163,0.0114143024696289,0.0110725919458508,6.47246627235733E-05,-0.00144354826392543,-0.00813281475616179,0.0146769159334037,0.00849450822924225,-0.018439827114536,0.0151965143237849,0.00610018552589063
33,0.0051529544438242,0.00191692333070565,0.0226818377541453,0.0128513174248842,0.0185715221408269,0.0118221245608373,-0.0360155436621609,-0.00250584386861795,-0.00190771816998232,0.00574523342660645,0.000188835947183688,-0.000353313409576814,0.0058401538444448,0.00767860085321954,0.0198082894445137,0.0175374415830575,-0.00567166348013992,0.00640818468841016,0.0034763867882654,0.00198236507507367,0.0117214772007509,0.0109460430031328,-0.000654978790658485,-0.00130672979644775,-0.00901099699583011,0.014561200037685,0.00900464883685663,-0.018710446598491,0.0159704861298024,0.00642995880833781
34,0.00471089824996182,0.00124025936996437,0.0235744337810528,0.0131337410639559,0.0182842211480223,0.0125849117970279,-0.0331470457902465,-0.00257673194507643,-0.00268649499046752,0.00633499944366782,0.000271795698233703,-0.000241601814194516,0.00568927617006723,0.00820417039481689,0.0192877014540812,0.0170066870099382,-0.00506421542335038,0.00455519954707772,0.00367132128018656,0.00258719510994419,0.0120088629492129,0.0108123023204527,-0.00134200307085512,-0.00117044178526436,-0.00986397956823151,0.0144154236335566,0.00949149248584556,-0.0189196929163655,0.0167467102671932,0.00675126577781074
35,0.00425780388845121,0.000568128967824904,0.024428060552155,0.0134234717227156,0.0180167940973728,0.0133190539977619,-0.0302296018127431,-0.00263869312981212,-0.00342808441253493,0.00696150088171898,0.000368050558676494,-0.000128260713651125,0.00550266280592299,0.00885194017030131,0.0186730050040858,0.0164616206898442,-0.00446340911627162,0.0026676309102485,0.00384708045029259,0.00320407764223113,0.01227763578666,0.0106699893414194,-0.0019931595051725,-0.00103394828067404,-0.0106892681921261,0.0142400669661732,0.00995254725380246,-0.0190667547300522,0.0175221216734266,0.00706318520035669
36,0.00379654084208005,-9.63852165488579E-05,0.0252392182531361,0.0137177720492219,0.0177735806406007,0.0140246835854433,-0.0272757777772604,-0.00269152434261007,-0.00412504492234896,0.00762100006728062,0.000478079848243379,-1.37127633487517E-05,0.00528307861456925,0.00962583182348766,0.01796576162596,0.0159074172123735,-0.00386967213269235,0.000754337175842115,0.00400505833544433,0.00383069107364871,0.012528838724415,0.0105177646056296,-0.00260550444644385,-0.000896585927382374,-0.0114845762830373,0.0140357346322743,0.0103855626868176,-0.0191512585108621,0.0182936131998533,0.00736460504602008
37,0.00333018201820174,-0.000749953502831685,0.02600461932607,0.0140137835609824,0.0175585330235707,0.0147022967276188,-0.0242984559780026,-0.00273479565220034,-0.00477014140175046,0.00830931871030788,0.000602239791915519,0.000101667542320295,0.00503339821792522,0.01052938885803,0.0171680840768386,0.0153492865913136,-0.00328333405804036,-0.00117542878959393,0.00414661459120805,0.0044647096510098,0.0127633436948178,0.0103543436269196,-0.00317635907682315,-0.000757776850027588,-0.0122478306045953,0.0138031511562501,0.0107885722292867,-0.0191732677221466,0.0190580592298028,0.00765423019402376
38,0.00286198878290868,-0.0013890289712043,0.0267212019261618,0.0143085623952515,0.017375148579957,0.0153526922496252,-0.02131070897485,-0.00276786979386773,-0.00535643875743728,0.0090218906649605,0.000740754140348882,0.000217554236937233,0.00475658858438469,0.0115657223391001,0.0162826759709291,0.0147924185292868,-0.00270464686377344,-0.00311209202766847,0.00427306249541378,0.00510382921136442,0.0129818167832006,0.0101785104263777,-0.00370332689143101,-0.000617040520897825,-0.0129771741158291,0.0135431562755035,0.0111599321813248,-0.0191332769278413,0.0198123388052633,0.00793059411471831
39,0.00239539269657828,-0.0020098813856627,0.0273861395487425,0.0145991154351813,0.0172264083161023,0.0159769040061468,-0.0183256744925872,-0.00278992507158256,-0.00587739323026665,0.00975382043064757,0.000893706733822592,0.000333669266386972,0.00445569241133236,0.0127374558453471,0.0153128685386296,0.0142419267489126,-0.00213380656830197,-0.00504583159606636,0.00438565902858521,0.005745792237231,0.0131846875810942,0.00998913057168055,-0.00418430887907322,-0.00047400438177664,-0.0136709661826404,0.0132567000864173,0.0114983563031565,-0.0190322010185532,0.020553357914778,0.00819207438121046
40,0.0019339740616938,-0.0026086347892693,0.0279968470474915,0.0148824361453295,0.0171147228231018,0.0165761285573112,-0.0153564334874247,-0.0027999809969631,-0.00632693989555673,0.0104999462856455,0.00106103623661084,0.000449780958122824,0.00413381231711849,0.0140466704645216,0.0142626533143931,0.0137027940901686,-0.00157097548544395,-0.00696665955559339,0.00448559714704601,0.00638841181793479,0.0133721234774549,0.00978516356352387,-0.00461751642607007,-0.000328412998969934,-0.0143277803291455,0.0129448382011119,0.0118029452535559,-0.0188713598210613,0.0212780706317759,0.00843691178321112
41,0.0014814374791183,-0.00318130823261846,0.0285509833583824,0.0151555394845142,0.0170418866225429,0.0171516501195019,-0.0124158935491412,-0.00279692600989031,-0.00669957491859805,0.011254906866276,0.00124253322726632,0.000565701657094068,0.0037940958125161,0.0154948506985501,0.0131367095537772,0.0131798190712197,-0.00101630434467997,-0.00886450195128223,0.00457400031937097,0.00702959412955337,0.0135440096339235,0.00956567440009125,-0.00500148197323462,-0.000180135541293034,-0.0149463997071638,0.012608727058029,0.0120732101396223,-0.018652458423584,0.0219834988369126,0.00866323274060834
42,0.00104158468386526,-0.0037238590328987,0.0290464513201199,0.0154154953120693,0.017009041892965,0.0177047648353712,-0.00951667962370728,-0.00277954663346248,-0.00699043121105548,0.0120132099592478,0.00143783978199545,0.000681284622090877,0.00343972098301783,0.0170828321981577,0.0119404252063434,0.0126775645977305,-0.00046995356621087,-0.0107292808821305,0.00465191935073778,0.00766735907009987,0.0136999353033668,0.0093298441433896,-0.00533506745523962,-2.917138567745E-05,-0.0155258104620739,0.0122496195165753,0.0123090895659172,-0.0183775636063955,0.0226667503082694,0.00886907464652664
43,0.000618284993937017,-0.00423222790424772,0.0294813950393871,0.0156594597639758,0.0170166523408488,0.0182367064301006,-0.00667103379923883,-0.00274655743721663,-0.00719534624204681,0.0127693022639645,0.00164645163431922,0.000796420286028802,0.00307388278150143,0.0188107522798866,0.0106799103243545,0.0122003094836309,6.78870118647387E-05,-0.012550996746388,0.0047203314737976,0.00829985871762335,0.0138391870495148,0.00907697930863489,-0.00561747054653804,0.000124346325344101,-0.0160651931724485,0.0118688608484964,0.0125109596991755,-0.0180490768141004,0.0233250350175255,0.00905241371067584
44,0.000215443755679782,-0.00470238525340293,0.0298541952875075,0.0158847041462671,0.0170644877791296,0.0187485752919719,-0.0038907256069462,-0.00269663121530252,-0.00731092089040826,0.0135176389040657,0.00186772293603974,0.000911031991036167,0.00269977980709058,0.0206780041868917,0.00936200186683158,0.0117520034153087,0.000596980626886762,-0.0143198097545948,0.00478014164011291,0.00892539331590621,0.0139607493108826,0.00880651990125781,-0.00584822872985332,0.000280149325277144,-0.0165639125407931,0.0114678852174296,0.0126796370065476,-0.0176697041413275,0.0239556795264954,0.00921119482460073
45,-0.000163030792737558,-0.00513037790110837,0.0301634634342551,0.0160886409721266,0.0171516197640082,0.0192412729362752,-0.00118697396061541,-0.00262842882904147,-0.00733456837918925,0.0142527515202278,0.00210087358390104,0.00102507131391103,0.00232060143139287,0.0226831960379532,0.00799425896304557,0.0113362259525553,0.00111702893229295,-0.0160261198212101,0.00483218590406973,0.00954242453438859,0.0140633126258331,0.00851804593674566,-0.00602722119380751,0.000437835185398299,-0.0170215055141931,0.0110482127143546,0.0128163734764575,-0.0172424238276103,0.0245561394348575,0.00934336293157769
46,-0.000513261790101416,-0.00551237547237962,0.0304080344249909,0.0162688468534758,0.0172764284231245,0.0197154436848927,0.00142961849312832,-0.00254062821480633,-0.00726455250609137,0.0149693138551788,0.00234499901518283,0.00113851309937453,0.00193951512812843,0.0248241153671616,0.00658494782738356,0.010956150114475,0.00162766075107132,-0.0176606439780351,0.00487723675227344,0.0101495857950089,0.0141452896990633,0.00821128229718078,-0.00615466855750459,0.00059687068239504,-0.0174376680170847,0.0106114469914011,0.0129228442876057,-0.016770451770202,0.0251240098847431,0.00944689535565573
47,-0.000831438684140988,-0.00584471569999287,0.0305869592898143,0.0164230820448613,0.0174366203906014,0.0201714252225725,0.00394911820187644,-0.00243195211720836,-0.0071000145700706,0.0156622038422885,0.00259908231585262,0.00125135031744205,0.00155965386629859,0.0270977000916594,0.00514301566763092,0.0106145110474324,0.00212842473130236,-0.0192144904986423,0.00491601019630951,0.0107456895082307,0.0142048393445871,0.00788610180518581,-0.00623113041360148,0.000756597617955223,-0.0178122404837287,0.0101592735104512,0.0130011280497146,-0.0162572055664032,0.0256570341794929,0.00951983452687991
48,-0.00111385234582733,-0.00612394790699154,0.0306994976390532,0.0165493065245578,0.0176292575525694,0.0206092094785538,0.00636230065606082,-0.00230119417256698,-0.00684098859009075,0.0163265613261484,0.00286200842885212,0.00136358885719424,0.00118410343978728,0.0295000166594595,0.00367805310054687,0.0103135802145049,0.00261878630317406,-0.0206792289819534,0.00494917441567339,0.0113297311132377,0.0142398981883543,0.00754252643070651,-0.00625750067875555,0.000916241092760463,-0.0181451923852362,0.00969345839669678,0.0130536798959998,-0.0157062675908584,0.0261531106208323,0.00956032053318582
49,-0.00135692988062274,-0.0063468739760847,0.0307451105497969,0.0166456925828346,0.0178507961057195,0.0210284150331999,0.00866067774359628,-0.00214724303629335,-0.00648840461256211,0.0169578406725062,0.00313258019943268,0.00147524236247325,0.000815889626542374,0.0320262460266294,0.00220024478209577,0.0100551454808049,0.00309812923460451,-0.0220469557133956,0.00497735971074319,0.0119008898727577,0.0142482198572733,0.0071807265877759,-0.00623500074178042,0.00107492019094873,-0.0184366059552346,0.00921584786101702,0.0130832978591009,-0.0151213475995847,0.0266102977096239,0.00956662293385929
50,-0.00155726865478796,-0.00651058617592739,0.0307234541855678,0.0167106339683133,0.018097135245747,0.0214282719688571,0.0108365131094166,-0.00196910431726014,-0.00604408010507707,0.0175518576612154,0.00340953595067265,0.00158632720595031,0.000457965096912325,0.0346706779958599,0.000720308174517606,0.00984049739554459,0.00356576196963233,-0.0233103537014173,0.00500116950287499,0.0124585264307388,0.0142274212232135,0.00680101852569279,-0.00616517040519605,0.00123166098307828,-0.0186866593295511,0.00872836812878021,0.0130930831065313,-0.0145062453328066,0.0270268178891153,0.00953717128469502
51,-0.00171166906716146,-0.00661250129466853,0.030634374418718,0.0167427517185266,0.0183636746358137,0.021807619778352,0.0128828263995321,-0.00176592014933617,-0.00551069963164071,0.0181048301952351,0.00369156824650824,0.00169685768712062,0.000113196021886208,0.0374267143197026,-0.000750579392665917,0.00967042188958817,0.00402092881181914,-0.0244627468727572,0.0050211921000065,0.0130021772004028,0.0141750351132893,0.00640385987002444,-0.00604985662460577,0.00138541170716087,-0.0188956093285512,0.00823302578633224,0.0130863947458863,-0.0138648135645592,0.0274010600353374,0.00947058385069362
52,-0.00181716561872331,-0.00665039062697068,0.0304779026463958,0.0167408968686399,0.0186453796598695,0.0221649186201052,0.0147933875101818,-0.00153698629213765,-0.00489178319481681,0.0186134124974093,0.0039773434725202,0.00180684152764145,-0.000215651633432215,0.0402868808354689,-0.00220086495838952,0.00954519951708106,0.00446282588610732,-0.0254981479988438,0.00503801293156778,0.0135315457100729,0.0140885687442009,0.00598984342124501,-0.00589120006189914,0.0015350599396536,-0.0190637741254729,0.00773190842995083,0.0130668000312372,-0.0132009220200121,0.0277315809163949,0.00936569401765362
53,-0.00187105586388102,-0.00662240546819197,0.0302542529100749,0.0167041502916549,0.0189368533433906,0.0224982738730301,0.0165627021591209,-0.00128176670739015,-0.00419164380937754,0.0190747226016809,0.00426552184675191,0.00191627572457755,-0.000525926108885263,0.0432428487599637,-0.0036187147882898,0.00946461127277076,0.00489062167937788,-0.0264113000154918,0.00505222694613777,0.0140464910934456,0.0139655669914587,0.00555968937012564,-0.00569161948224211,0.00167945152260558,-0.0191915160591378,0.00722718547548057,0.0130380209073323,-0.0125184225527932,0.0280171058504009,0.00922157395842732
54,-0.00187092686801549,-0.00652709788432365,0.0299638203497619,0.0166318199735519,0.0192324137257749,0.0228054736049456,0.0181859902447619,-0.000999905602656737,-0.00341533503679574,0.0194863630742963,0.00455477746414177,0.00202514280903689,-0.000815104080210794,0.0462854651364789,-0.00499211891005558,0.00942795091437515,0.00530348182540971,-0.0271977104867299,0.00506445085941235,0.0145470139683902,0.0138036794670156,0.0051142361365034,-0.00545379404098908,0.00181741097064076,-0.0192792248631976,0.00672110896058709,0.0130038779143566,-0.0118211159451796,0.0282565287905941,0.00903755516178908
55,-0.00181467884377322,-0.00636343664433272,0.0296071809508358,0.0165234360674133,0.0195261753948569,0.0230840382333257,0.0196591585578027,-0.000691236970081198,-0.00256858935745208,0.019846435021881,0.00484381797865325,0.00213340754479806,-0.00108080502194332,0.049404792298927,-0.00630900411106526,0.0094340436134772,0.00570059766770176,-0.0278536790498694,0.0050753349390703,0.0150332400026001,0.0136007302544796,0.00465443007904315,-0.00518064352506215,0.00194776304331692,-0.0193273015947623,0.00621601414627785,0.0129682325400965,-0.0111127206644121,0.0284489120559156,0.00881324549052334
56,-0.00170054569163622,-0.00613081831883808,0.0291850924769639,0.0163787441014848,0.0198121338450349,0.0233312813353153,0.0209787694587393,-0.000355791674626534,-0.00165774838569697,0.0201535455559824,0.00513140353655807,0.00224101408924565,-0.00132080556287375,0.0525901561020489,-0.00755735392490592,0.00948127065080748,0.00608121800783366,-0.0283763177619368,0.00508557401753265,0.0155054015141172,0.0133547890432868,0.00418131435552427,-0.00487530663414145,0.0020693551358012,-0.0193361435511373,0.00571431970103747,0.0129349291459107,-0.0103968438787699,0.0285934859065429,0.00854854249907897
57,-0.00152711222596241,-0.00582907366201785,0.0286984964286676,0.0161976967372674,0.0200842512962064,0.0235443802636038,0.0221420071345277,6.19783491112144E-06,-0.000689686040690538,0.0204068089868935,0.00541636459196611,0.00234788362763401,-0.00153305365607395,0.0558302025632189,-0.00872533389511656,0.00956759976475009,0.00644468333212465,-0.0287635643465082,0.00509591743391392,0.015963817498546,0.0130642423156179,0.00369601723400865,-0.00454111741031903,0.00218108011479295,-0.0193061304630072,0.00521852723081121,0.0129077376059885,-0.0096769550072672,0.0286896481375087,0.00824364280850554
58,-0.00129332792364857,-0.00545846949899318,0.0281485208249022,0.0159804444848553,0.0203365426104644,0.0237204549541431,0.0231466430014947,0.00039429510681756,0.000328274127189496,0.0206058421124243,0.00569761826072055,0.0024539124817959,-0.00171568234918434,0.0591129624688026,-0.00980142019577355,0.0096906206584542,0.00679046170963499,-0.0290141884138332,0.00510717762306592,0.0164088725113537,0.0127278631758461,0.00319974016378676,-0.00418157995059523,0.00228189920801635,-0.0192376122447001,0.00473121990238012,0.01289029778482,-0.00895636204645707,0.028736963830725,0.00789904740593703
59,-0.000998517086956324,-0.00501970643527166,0.0275364835747116,0.0157273257834379,0.0205631599664118,0.0238566530781989,0.0239910017335503,0.000807859467660921,0.00138844618843841,0.0207507540487914,0.00597418290014277,0.00255897068630702,-0.00186702290841487,0.0624259234126453,-0.0107745295175445,0.00984758507464782,0.0071181854738625,-0.0291277907947714,0.00512023709272435,0.0168409948618881,0.0123448783748097,0.00269374591107379,-0.00380034156425942,0.00237086454486223,-0.0191308985664808,0.00425505989754735,0.0128860669351984,-0.00823819088620797,0.0287351653678294,0.00751556280621087
60,-0.000642385363570394,-0.0045139127844472,0.0268638961872802,0.0154388568447011,0.020758474995954,0.0239502395009603,0.0246739292697904,0.00124604791059584,0.00248287235306084,0.02084213111998,0.00624519063878277,0.00266290101919145,-0.00198561702336182,0.0657561086516021,-0.0116341480013561,0.01003545076197,0.00742768774180636,-0.0291047961893991,0.00513605355929214,0.0172606345947082,0.0119150310725234,0.00217934704878355,-0.00340116456583148,0.00244714094298469,-0.0189862504899603,0.00379278443196592,0.0128982710289524,-0.00752536779275689,0.0286841527646163,0.00709429808294947
61,-0.000225022614921816,-0.00394263517119883,0.0261324675606876,0.0151157216354657,0.0209171571545155,0.0239986878665516,0.0251947639989613,0.0017078190001499,0.0036034154171816,0.0208810173778957,0.00650989762141017,0.00276551847078468,-0.00207022780092518,0.0690901620791445,-0.0123704569250927,0.0102509285859264,0.0077190377894506,-0.0289464393833269,0.00515566304824326,0.0176682417428572,0.0114386379048211,0.00165789506370699,-0.00298789692245205,0.00251002654066053,-0.0188038743760122,0.00334720007616057,0.0129298609365539,-0.00682060520127093,0.0285839943437615,0.00663665784431508
62,0.000253097831982667,-0.00330782630477272,0.0253441075910251,0.014758762343311,0.0210342471816086,0.0239997720379247,0.0255533121352848,0.00219193870872759,0.00474185179130133,0.0208688913675089,0.00676769177922854,0.00286661013344005,-0.00211984924656742,0.0724144385309239,-0.012974452825604,0.0104905319842826,0.00799257429342249,-0.0286547453282798,0.00518018080556728,0.0180642453363796,0.0109166389729984,0.0011307703096457,-0.0025644420007958,0.00255897188711623,-0.0185839182358935,0.00292117512797572,0.0129834742524813,-0.00612639092120466,0.0284349277174106,0.00614433129355408
63,0.000791123473304706,-0.00261183043060819,0.0245009303524576,0.0143689706256858,0.0211052246129978,0.0239516550815985,0.0257498280959684,0.0026969881081445,0.00588996377489576,0.0208076397782144,0.00701809798303591,0.00296593549617638,-0.00213371393072999,0.0757150985462362,-0.0134380597714086,0.0107506279328095,0.00824893546530827,-0.0282325034181736,0.0052107999107356,0.0184490336375948,0.0103506394610894,0.000599372993020236,-0.00213472768125362,0.00259359712235066,-0.0183264706518612,0.00251762980593333,0.0130614034244339,-0.00544498081577438,0.0282373610063817,0.00561927757547788
64,0.00138783034409211,-0.00185736695355735,0.0236052566131707,0.0139474798900464,0.0211260684261921,0.0238529735023281,0.025785000470502,0.00322137284845824,0.00703962977237382,0.0206995286339892,0.00726078048705929,0.00306322713164075,-0.0021112985479381,0.0789782066197403,-0.0137542315923809,0.0110274885738373,0.00848908514809145,-0.0276832363180278,0.0052487875277301,0.0188229360526031,0.00974294170209621,6.51153296601766E-05,-0.00170267512525299,0.00261370690374442,-0.0180315623449756,0.00213952406247823,0.0131655706906006,-0.00477839497187118,0.027991874179798,0.00506370766653444
65,0.00204163401201677,-0.00104751268670765,0.0226596154697752,0.0134955587911022,0.0210933100349647,0.0237029145013669,0.0256599439408469,0.00376333436476163,0.00818291119588724,0.0205471726699238,0.00749554262263372,0.00315819176721916,-0.00205232709623185,0.0821898318935804,-0.0139170420215897,0.0113173426672032,0.0087143340130647,-0.0270111637213399,0.00529547877712165,0.0191862071368372,0.00909656666006572,-0.000470585040450138,-0.00127216749479248,0.00261930276849204,-0.0176991704165769,0.00178984285551266,0.0132975101648935,-0.00412841732882488,0.0276992203598228,0.00448006311762787
66,0.00275060366653814,-0.000185683118896521,0.0216667449018103,0.0130146060625714,0.0210040779930282,0.0235012841528991,0.0253761972752487,0.00432096275917316,0.00931213487186558,0.0203535035207932,0.00772232375287844,0.00325051173699581,-0.00195677143507057,0.0853361501671556,-0.0139217609096436,0.0116164260499346,0.00892635508919186,-0.0262211614233386,0.0053522682577384,0.0195390130720856,0.00841526396591336,-0.00100631034762728,-0.000847018931860283,0.00261059265822919,-0.0173292252375746,0.00147157876644956,0.0134583572401208,-0.00349659868395633,0.0273603269029725,0.00387099200490573
67,0.00351247908865704,0.000724386983150458,0.0206295910672777,0.0125061467262636,0.0208561339186669,0.0232485645642299,0.0249357272820649,0.00489221130901083,0.0104199698604702,0.0201217373084149,0.00794119355117424,0.00333984681577925,-0.00182484902051645,0.0884035460457342,-0.0137649149294065,0.011921030335335,0.00912719297313252,-0.0253187161046674,0.00542059929039556,0.0198814209443753,0.00770350983708506,-0.00154064671659498,-0.000430944110123916,0.00258799737482643,-0.0169216199074408,0.00118771191311645,0.0136488453079845,-0.0028842629405378,0.0269762960444466,0.00323932248385121
68,0.00432469025576279,0.00167866340973721,0.0195513061790196,0.0119718296423598,0.0206478993078041,0.0229459583031268,0.0243409383788045,0.00547491255232831,0.0114994977093834,0.0198553421591882,0.00815234371680698,0.00342583643989585,-0.00165701766680207,0.0913787140141679,-0.0134443314923468,0.0122275491409989,0.00931926620389733,-0.0243098762246111,0.00550195099833932,0.0202133910974343,0.00696649242003413,-0.0020721869904411,-2.75286728977719E-05,0.00255215378387266,-0.0164762221535597,0.000941187175134211,0.013869309626743,-0.00229251641079809,0.0265484048768482,0.00258803437561111
69,0.00518437930768461,0.00267283264428768,0.0184352448200491,0.0114134262835583,0.0203784730592837,0.0225954186360405,0.0235946872101706,0.00606679589797834,0.0125442752933801,0.0195580061129814,0.00835607729000156,0.00350810232132657,-0.00145396724250133,0.0942487572104627,-0.0129591649385885,0.012532521205303,0.0095053624375153,-0.0232011994269464,0.00559782337974456,0.020534772776032,0.00621008431577415,-0.0025995324680977,0.000359799129616273,0.00250391463449072,-0.0159928884920275,0.000734888825750515,0.0141196980062801,-0.00172225993454652,0.0260781044307133,0.00192022924098885
70,0.00608842457494977,0.00370232225688355,0.0172849585736091,0.0108328305352957,0.0200476396896269,0.0221996644187338,0.0227003015414469,0.00666550669846291,0.0135483895361142,0.0192336058020906,0.00855279577523809,0.00358625146161809,-0.00121660827623555,0.0970012826862167,-0.0123099044309103,0.0128326698300358,0.00968862621977067,-0.0219996968665697,0.00570972056705381,0.0208453032080259,0.00544080227851048,-0.00312129370403501,0.000727795294466147,0.00244434492023665,-0.0154714804235715,0.000571612744612311,0.0143995878298793,-0.00117420352463315,0.0255670176316922,0.00123909941646413
71,0.00703346634943761,0.00476232159894279,0.0161041888608367,0.0102320592484962,0.0196558683617011,0.0217621788103581,0.0216616024639832,0.00726862670930543,0.0145065034672394,0.018886176187901,0.00874298432576352,0.00365987956961555,-0.000946057519426638,0.0996244919756969,-0.0114983633675728,0.0131249381707535,0.00987253932426568,-0.0207127748725441,0.00583913250599151,0.0211446102041238,0.00466575431191751,-0.00363609054398891,0.00107342510877667,0.0023747147650767,-0.0149118823933888,0.00045403646739577,0.0147082087958317,-0.000648883205542874,0.0250169359275314,0.00054789649762534
72,0.00801593406186514,0.00584780292169558,0.0148968578956517,0.00961325320483842,0.0192043029893663,0.0212871913367267,0.020482928781821,0.00787369583792837,0.0154138932329617,0.0185198815473586,0.00892719528304367,0.00372857488244344,-0.000643620589794828,0.102107265850709,-0.0105276505186704,0.0134065199846475,0.0100608937937951,-0.0193481743741616,0.00598751532290786,0.0214322182811054,0.00389257462349362,-0.00414255158502953,0.00139388608878645,0.00229648887964405,-0.0143140212017566,0.000384687407546739,0.0150444706435346,-0.000146679672416024,0.0244298144060145,-0.000150100241773789
73,0.0090320745203182,0.0069535431087299,0.0136670576834116,0.00897867810194563,0.0186947438056916,0.0207796432011509,0.0191691623070115,0.00847823505782691,0.0162664758478056,0.0181389878058372,0.00910603040177492,0.00379192238250684,-0.000310771896428905,0.104439242212827,-0.0094021234745439,0.0136748855369965,0.0102577579901628,-0.0179139085318677,0.00615627068126571,0.0217075582388034,0.00312934713093307,-0.00463931325190805,0.00168662853685133,0.00221131269471283,-0.0136778865136033,0.00036590966012231,0.0154069950310943,0.000332161634154122,0.0238077652610558,-0.000851615012640293
74,0.0100779808596676,0.00807414626715627,0.0124190370079506,0.00833072513104464,0.0181296208943227,0.0202451361236561,0.0177257526806795,0.00907977033069417,0.0170608276459262,0.0177478362218183,0.00928012212294128,0.0038495083949538,5.08678774550611E-05,0.106610886167306,-0.00812732536205338,0.013927802460278,0.0104674361161164,-0.0164181990350675,0.00634672445484483,0.0219699800451812,0.00238451844157608,-0.00512501867462623,0.00194937345678785,0.00212099533947966,-0.0130035520802029,0.000399829865975072,0.0157941506572188,0.000787509466239886,0.0231530495061912,-0.00155340578743637
75,0.0111496218535062,0.00920406746176375,0.0111571863722088,0.00767191070507443,0.0175119602818477,0.0196898653729359,0.0161587402623549,0.00967585734152619,0.0177941935576469,0.017350818346073,0.00945011428298472,0.00390092554048441,0.000439556387141912,0.108613551434211,-0.00670990612547492,0.0141633514528647,0.0106944218184068,-0.0148694115540904,0.00656010506499566,0.0222187688092639,0.0016668014422143,-0.00559831653531537,0.00218012759118171,0.00202748969013789,-0.0122911972552147,0.000488322674827661,0.0162040906712706,0.00121932516388626,0.0224680668806792,-0.00225229324730657
76,0.0122428712485633,0.0103376379015178,0.00988602088232451,0.00700487490205351,0.0168453432744615,0.019120538031012,0.0144747755962821,0.0102641068120179,0.0184644874969446,0.0169523521074061,0.00961664266514637,0.0039457780081079,0.000853455923511225,0.110439532382145,-0.00515752997498726,0.0143799367944918,0.0109433466090586,-0.0132759908634828,0.00679752184095282,0.0224531635504032,0.000985070836937676,-0.00605786002720393,0.0023771953724031,0.00193286976774397,-0.0115411283611535,0.000632976396817879,0.0166347913928378,0.00162764095867602,0.0217553439413424,-0.00294518798889563
77,0.0133535367966317,0.0114690918979715,0.00861016109526897,0.00633237821648413,0.0161338597962863,0.0185442778893002,0.0126811339743316,0.0108422101187522,0.0190702842945301,0.0165568588217043,0.00978031580832981,0.00398368710192977,0.00129066092849276,0.112082106117751,-0.0034787708701218,0.0145762917406211,0.0112189239493945,-0.0116463961870022,0.00705994376548721,0.0226723784061089,0.000348252150414787,-0.00650230603684661,0.00253918761230475,0.00183930581204895,-0.0107537994421549,0.00083505947245556,0.0170840913663948,0.00201253863452943,0.0210175203813893,-0.00362911562239664
78,0.0144773886807271,0.0125925959109111,0.00733431188676841,0.00565729625935377,0.0153820565507795,0.0179685187081587,0.0107857236735429,0.011407964907766,0.0196108037457045,0.0161687408836985,0.00994169648873838,0.00401429700573765,0.0017492262181174,0.113535564227874,-0.00168299812245687,0.0147514789350625,0.0115258899255129,-0.00998903734905728,0.00734817896344705,0.0228756258609292,-0.000234794131369734,-0.00693031462565414,0.00266502679419114,0.00174903739862996,-0.00992983192606595,0.00109548841920399,0.0175497298072045,0.00237412898377992,0.0202573336641138,-0.00430123944213918
79,0.0156101870597411,0.0137022799780774,0.00606323943937971,0.00498261211275697,0.0145948808816402,0.0174008878720663,0.0087970865534757,0.0119593003684365,0.0200858874597169,0.0157923598834982,0.0101012842798504,0.00403728069939235,0.00222719536971379,0.114795233947038,0.00021974563343022,0.0149048860482358,0.0118689415030257,-0.00831221235002757,0.00766285527896686,0.023062141526869,-0.000755391484758925,-0.00734054885114376,0.00275394887483078,0.00166434499953757,-0.00907003271504935,0.0014147979279041,0.0180293835506807,0.00271253247693478,0.0194776021029172,-0.0049588804069331
80,0.0167477084878303,0.0147922717931517,0.00480174649893874,0.00431140612554625,0.0137776212556579,0.0168490827318701,0.00672438985400196,0.0124943018088315,0.0204959692960712,0.0154320148936154,0.0102594995773136,0.00405234595202623,0.00272262871033944,0.115857488705971,0.00221887174301125,0.0150362169070569,0.0122526733824518,-0.00662404701064359,0.0080044022695262,0.0232312099627996,-0.00120516744296661,-0.00773167493504622,0.00280550155401312,0.00158752041247008,-0.00817541023050172,0.00179311378331961,0.0185207016976139,0.00302786153642629,0.0186812065578933,-0.00559953422762229
81,0.0178857709993918,0.0158567336491727,0.00355464609870404,0.00364684302843404,0.012935845326339,0.0163207421369585,0.00457740823583734,0.0130112341625694,0.0208420402521323,0.015091920696692,0.0104166694477509,0.00405924130886119,0.00323363033830272,0.116719748201787,0.00430337570109863,0.0151454784323986,0.0126815144856877,-0.00493243735009611,0.00837303492285715,0.0233821909874494,-0.00157617290496012,-0.00810236275662481,0.00281953902402706,0.00152083650030141,-0.00724718795628433,0.00223012927007229,0.0190213372499777,0.00332020476843189,0.0178710709519128,-0.00622088542196554
82,0.0190202576858856,0.0168899024028117,0.00232673400092695,0.00299215634681871,0.0120753365625209,0.0158233158171357,0.0023664953501772,0.0135085640543251,0.0211256087252443,0.0147761857678755,0.0105730156252271,0.00405776198103026,0.00375837361928575,0.117380468311874,0.00646196778925163,0.0152329637426094,0.013159665090715,-0.00324499537077799,0.00876873937702029,0.0235145459191286,-0.00186099867222349,-0.00845128662666065,0.00279621327059312,0.0014665166920001,-0.0062868150547901,0.00272508569840364,0.0195289751536509,0.0035896134630247,0.0170501418350217,-0.00682081826016005
83,0.0201471386256069,0.0178861325381903,0.00112276015149635,0.00235063019303812,0.0112020304385353,0.0153639343706844,0.000102544504708884,0.013984980057735,0.0213486571118248,0.014488789885722,0.0107286449372849,0.00404775554103482,0.00429512462328209,0.117839121346565,0.00868320185095235,0.015299231817662,0.0136910355991436,-0.00156899891721007,0.00919126089562469,0.0236278631663875,-0.00205288723105957,-0.00877712628127256,0.00273596205892074,0.00142670469804379,-0.00529597367370832,0.00327675764385967,0.0200413563014627,0.00383609062227664,0.0162213672452028,-0.00739742458631375
84,0.0212624910611356,0.0188399423172549,-5.26005186540624E-05,0.00172557862206959,0.0103219511794632,0.0149492826472336,-0.00220306169642135,0.0144394107958308,0.0215135957262921,0.0142335613173584,0.0108835423950302,0.0040291273203758,0.00484226300792327,0.118096167295799,0.0109555999961192,0.0153450841486725,0.0142791878725481,8.86537437058349E-05,0.00964009431967765,0.0237218825979564,-0.00214583783709373,-0.00907856802544213,0.00263949380208275,0.00140343488876467,-0.00427658261775004,0.00388344344131185,0.0205562971977817,0.00405958271950418,0.015387675127202,-0.00794900856050853
85,0.0223625177515949,0.0197460628978588,-0.00119477758390969,0.00112032283089441,0.00944115003404824,0.0145854792790782,-0.00453851253084678,0.014871040560279,0.0216232150250527,0.014014153602269,0.011037567129622,0.00400184540055943,0.0053982999068792,0.118153016867841,0.0132677711966065,0.0153715388219817,0.0149272800118988,0.00172148401008756,0.0101144771851443,0.0237965181374229,-0.00213470303322755,-0.00935430595391967,0.00250776957203128,0.00139860377296344,-0.00323079712902562,0.00454296140666733,0.0210717051391731,0.00425997433191035,0.0145519515808278,-0.00847408842175146
86,0.0234435634583767,0.0205994901822608,-0.00229933452834275,0.000538166566842121,0.00856564600651647,0.0142779650120326,-0.00689164060786324,0.0152793221613848,0.0216806371058178,0.0138340220390092,0.0111904513014584,0.00396594508432144,0.00596189244755248,0.118011987239382,0.0156085219458151,0.0153798025058653,0.0156380153825681,0.00332346714105842,0.0106133856610371,0.0238518780572228,-0.00201527484257068,-0.00960304318183753,0.00234198257446023,0.00141394299682844,-0.00216100460169082,0.00525265217909544,0.0215855889190239,0.00443708572497253,0.0137170192176911,-0.00897139542348703
87,0.0245021295538121,0.0213955390303137,-0.00336199768180042,-1.76298202097135E-05,0.00770136991517053,0.0140314023182092,-0.00925000270954424,0.015663986765503,0.0216892674207206,0.0136964000551588,0.0113418020490978,0.0039215327308537,0.00653185459856717,0.117676251531892,0.0179669574018949,0.0153712408214071,0.0164135966079309,0.00488906006992121,0.0111355334268087,0.0238882824860232,-0.00178435902300458,-0.00982349302803244,0.00214353546541927,0.00145099425992178,-0.00106981614967371,0.00600938748270349,0.0220960652121319,0.00459067340178059,0.0128856159122047,-0.00943987014013946
88,0.0255348867719412,0.0221298993366795,-0.00437868431257534,-0.000543876196166438,0.00685411255966209,0.0138495885414615,-0.0116009688281987,0.0160250505293734,0.0216527475934398,0.013604275708453,0.0114911064834158,0.00386878883743271,0.00710716413257197,0.117149783095181,0.0203325717094884,0.0153473475872368,0.0172556851694889,0.00641322242633743,0.0116793735701939,0.0239062776915775,-0.00143983594803451,-0.0100143801093185,0.00191401593812208,0.00151108651606234,3.99459512632275E-05,0.00680958549988023,0.0226013609329463,0.00472043356596319,0.0120603742395771,-0.00987865638510809
89,0.0265386861478696,0.0227986933342275,-0.00534552952015935,-0.00103747981577981,0.00602947767142,0.0137353845361842,-0.0139318179246779,0.016362817900729,0.0215749101661438,0.0135603686229302,0.0116377396698383,0.00380797025054201,0.00768696558135154,0.116437295713008,0.0226953264941727,0.0153097134305774,0.0181653671620618,0.00789143045770544,0.0122431035478134,0.0239066467557869,-0.000980706886468624,-0.0101744413217816,0.00165517105080189,0.0015953157928261,0.00116526481704366,0.00764923293022529,0.0230998119837507,0.00482600838464132,0.0112438019004178,-0.0102870930172687
90,0.0275105682154466,0.0233985333511234,-0.00625891160157136,-0.00149547232516271,0.00523284019558554,0.013690660417676,-0.016229838698284,0.0166778815195193,0.0214597360220119,0.0135671077061911,0.0117809754792119,0.00373941139274366,0.008270569155681,0.115544180846171,0.0250457168408939,0.0152599942540072,0.019143125659429,0.00931968365258105,0.0128246732112539,0.0238904163185003,-0.000407124687468852,-0.0103024267033543,0.00136888079890727,0.00170452792477304,0.0023029492627752,0.0085239136811807,0.0235898589126093,0.00490699487968044,0.010438263437481,-0.0106647039435068
91,0.0284477705505048,0.0239265791219738,-0.00711547560566771,-0.0019150360785583,0.00446931031208822,0.0137162596548914,-0.0184824334822423,0.0169711187218606,0.0213113151340521,0.0136266100219108,0.0119200001276914,0.00366352439753212,0.00885744569922566,0.114476442996913,0.0273748243956262,0.0151998800379987,0.0201888200488235,0.0106945039942226,0.0134217958613453,0.0238588591303536,0.00027959186657753,-0.0103971001883272,0.00105713145579725,0.00183930445326899,0.00344965751288281,0.00942884400214033,0.0240700400822549,0.0049629562228597,0.00964596355334366,-0.011011186648027
92,0.0293477337577684,0.0243805936385933,-0.00791215484049327,-0.00229352928188223,0.00374370345303952,0.0138119823135569,-0.0206772232655537,0.0172436847165169,0.0211338111819513,0.013740661206231,0.0120539281697327,0.00358079805347036,0.00944721784160101,0.113240634218331,0.0296743575595045,0.0151310644432068,0.0213016725915863,0.0120129279075446,0.0140319622532808,0.0238134922218622,0.00107696050360366,-0.0104572402773243,0.000721989214106491,0.00199995190091949,0.00460192385971957,0.0103589137366315,0.0245389830081911,0.00499343516470892,0.00886893233633802,-0.0113263995940278
93,0.0302081060039814,0.0247589964278971,-0.00864619015679817,-0.00262850951856636,0.00306051641854165,0.0139765878106725,-0.0228021517960555,0.0174970025683367,0.0209314304572826,0.0139106978189072,0.012181820657483,0.00349179547126059,0.0100396476081276,0.111843788709223,0.0319366790667281,0.0150552156533528,0.0224802623621372,0.0132724911043379,0.0146524574353627,0.023756070565504,0.00198135488000201,-0.0104816406545099,0.000365574654229085,0.00218649458222943,0.00575618772602561,0.0113087332312802,0.0249953945559112,0.00499796928871228,0.0081090126936575,-0.0116103488489367
94,0.0310267461990304,0.0250609130669581,-0.0093151468929813,-0.00291775526900912,0.00242390953844042,0.0142078170833423,-0.0248455867417831,0.017732750181763,0.0207083953455286,0.0141377920115039,0.0123027051358853,0.0033971504031567,0.0106346208306048,0.11029335833502,0.0341548215409967,0.0149739488694233,0.0237225266090731,0.0144712066751218,0.0152803802649592,0.0236885761793703,0.00298804085748904,-0.0104691107870075,-9.96145347258488E-06,0.00239867106508848,0.00690882451361656,0.0122726853099152,0.0254380506929915,0.00497610775310277,0.00736785027337213,-0.0118631742803406
95,0.0318017259225048,0.0252862196918112,-0.00991692942903058,-0.00315928510080724,0.00183769467864667,0.0145024336195012,-0.0267964159771919,0.017952844527875,0.0204689225334638,0.0144226388764012,0.0124155971065479,0.00329756216330263,0.0112321287823999,0.108597149805713,0.0363224918998088,0.0148888008292024,0.0250257694726983,0.0156075369164146,0.0159126654073316,0.023613202694981,0.00409122922559764,-0.0104184765398573,-0.000402460539910563,0.0026359343507249,0.0080561775693154,0.0132449816003385,0.0258657864724355,0.00492742916202583,0.00664688612994047,-0.0120851356560941
96,0.0325313301869293,0.0254355812304106,-0.0104497933556776,-0.00335137428009371,0.00130532875251373,0.0148562823591332,-0.0286441372138975,0.0181594233984708,0.0202172059451959,0.014765546812167,0.0125195225654949,0.00319378912007019,0.0118322475301382,0.106763264127615,0.0384340657123567,0.0148012066837739,0.026386677885761,0.0166803595144049,0.0165461075870289,0.0235323354879266,0.00528414416103949,-0.0103285808339391,-0.000809776396139276,0.00289745579317061,0.00919459057193505,0.0142197223935533,0.0262774868805077,0.00485156019653077,0.00594735235037863,-0.0122765989594659
97,0.0332140571221222,0.0255104820943727,-0.0109123553166093,-0.0034925686318934,0.000829912275237792,0.0152643650645647,-0.0303789394055391,0.018354824999066,0.0199574042626017,0.0151664312028349,0.0126135412006852,0.00308664075699282,0.0124351155512014,0.104800038831923,0.0404845728074674,0.0147124795159555,0.0278013443823507,0.0176889288252217,0.0171773878282778,0.0234485275478121,0.00655910642586543,-0.01019828436508,-0.00122979273306534,0.00318213273297219,0.0103204396417448,0.0151909591236052,0.0266720791179117,0.00474819463332772,0.00527027081111032,-0.0124380231996711
98,0.0338486166586697,0.0255132481016762,-0.0113036006234454,-0.00358169555669147,0.000414192396601409,0.0157209303881759,-0.0319917746130313,0.018541565708438,0.0196936327393472,0.0156248116609658,0.0126967698249803,0.00297696832700562,0.0130409102092239,0.102715993372259,0.0424696755676604,0.0146237927363357,0.0292652964473101,0.0186328330942706,0.0178031013909508,0.0233644713429641,0.00790763002837073,-0.0100264663911883,-0.00166043784484362,0.00348859977351866,0.0114301644952895,0.0161527584830899,0.0270485268009835,0.00461711238473101,0.00461645517996079,-0.0125699479612569
99,0.0344339282828342,0.0254470584754949,-0.0116228887731726,-0.00361787218883857,6.05697679500758E-05,0.0162195765442052,-0.0334744193071091,0.0187223163351487,0.0194299588758467,0.0161398130280605,0.0127684056192682,0.00286565415483881,0.0136498237072548,0.100519777977618,0.0443856414309443,0.014536165542301,0.0307735319576626,0.0195119485395151,0.0184197870829875,0.0232829670145464,0.00932053080946623,-0.00981202558201388,-0.00209969615737384,0.00381524358146759,0.0125202980114534,0.0170992671367564,0.027405826473754,0.0044581982054555,0.00398651621549761,-0.0126729818943109
100,0.0349691179305628,0.025315946873824,-0.0118699570143067,-0.00360051075757278,-0.000228891454761354,0.0167533642253126,-0.034819524395773,0.0188998771916944,0.0191704013894075,0.0167101702630402,0.0128277487687098,0.00275359967396051,0.0142620391491462,0.0982201261475656,0.0462293111528178,0.0144504515753749,0.0323205601995062,0.0203263912842835,0.0190239576091994,0.0232068873127945,0.0107880451787259,-0.00955388091437847,-0.00254561652905926,0.00416022104494267,0.0135874936363488,0.0180247759650445,0.0277430067167828,0.00427145972935008,0.00338087034889753,-0.0127477923032094
101,0.0354535140847758,0.0251247905500539,-0.0120449221104252,-0.00352932128092332,-0.000452451197912617,0.0173149371998163,-0.0360206535813198,0.0190771522858149,0.0189189317937662,0.017334237283262,0.012874224092205,0.00264171231682624,0.014877707333453,0.0958258108844238,0.0479980643587277,0.0143673308627874,0.0339004478882073,0.021076468163283,0.0196121306005394,0.0231391397633552,0.0122999570148989,-0.00925097258586814,-0.00299631726203316,0.00452148057433057,0.0146285501316055,0.0189237827620467,0.0280591300289034,0.00405704451999252,0.00279975146375337,-0.0127950959462955
102,0.0358866431379318,0.0248792869242343,-0.0121482804379635,-0.00340431178416099,-0.000608679375611789,0.0178966478864001,-0.0370723099627026,0.0192571228982737,0.018679477799702,0.0180099997564705,0.0129074012903117,0.00253089140979298,0.0154969248807299,0.0933456046740538,0.0496897838455839,0.0142873050801438,0.0355068695750187,0.0217626274409274,0.0201808599571052,0.0230826266223265,0.0138457305717896,-0.00890226291350957,-0.00344998787636727,0.00489678628090792,0.015640433259148,0.0197910523290741,0.0283532975473224,0.00381525584166833,0.00224322571878215,-0.0128156511138554
103,0.0362682240811188,0.0245859170553356,-0.0121809065305285,-0.00322578628542521,-0.000696440820863083,0.0184906851325596,-0.0379699510933511,0.0194428207800904,0.0184559276678762,0.0187350917796237,0.012927013468675,0.00242201325630461,0.0161197142552229,0.0907882431545565,0.051302819975339,0.0142106961224858,0.037133161787283,0.0223854104743122,0.0207267671319588,0.0230402032425695,0.0154146470980594,-0.00850673718233779,-0.00390488779508445,0.00528374471889997,0.0166202940914128,0.0206216729458528,0.0286246565630316,0.00354656688030743,0.00171120918926674,-0.012810251008012
104,0.036598162581597,0.0242518957423814,-0.0121440501468036,-0.00299434082953563,-0.000714879908096327,0.0190892014223494,-0.0387099929735151,0.0196373011630544,0.0182521345906919,0.0195068163242256,0.0129329736308949,0.00231591562320327,0.0167460061867798,0.0881623923525256,0.052835956351126,0.0141376479199822,0.0387723802197313,0.0229454053251235,0.0212465719807393,0.0230146355292218,0.0169959427936077,-0.00806340441332717,-0.00435934218154238,0.00567983382802136,0.0175654837348252,0.0214111082656537,0.0288724106848764,0.00325163316671308,0.00120348803709796,-0.0127797184063196
105,0.036876544512568,0.023885108242406,-0.012039331896674,-0.00271085787493837,-0.000663405473773418,0.0196844368072744,-0.0392898036926947,0.0198436157382942,0.0180719201554834,0.0203221692790313,0.0129253888749474,0.00221338187453491,0.0173756249299837,0.0854766193206346,0.0542883777852429,0.0140681313814306,0.0404173592688617,0.0234432032766514,0.0217371228036833,0.0230085572071386,0.0185789456889946,-0.00757129803183333,-0.00481173526006638,0.006082433667506,0.0184735643521512,0.0221552437666152,0.0290958324091119,0.00293130297674436,0.000719740858076929,-0.0127249015514553
106,0.0371036290014516,0.0234940338708519,-0.0118687374141642,-0.00237649934679376,-0.000541676569367671,0.0202688369883319,-0.0397076876366096,0.0200647857207351,0.0179190759496044,0.021177866879966,0.0129045720690985,0.00211512502420114,0.0180082767170011,0.0827393659786666,0.0556596413671542,0.0140019522941049,0.0420607731794652,0.023879359145346,0.0221954252121658,0.0230244276553315,0.0201532090491461,-0.00702947643683575,-0.00526050153250609,0.00648885849077809,0.0193423164626361,0.0228504269964649,0.02929427776398,0.00258662550532616,0.0002595628000716,-0.0126466711730501
107,0.0372798410654015,0.0230876570398265,-0.0116346100197803,-0.00199269866053344,-0.000349589498481594,0.0208351631719294,-0.0399628613310049,0.0203037750834353,0.0177973624106768,0.0220703762830082,0.0128710508252117,0.00202177200243795,0.0186435416706955,0.0799589259421492,0.056949651227348,0.0139387619538224,0.0436951980517346,0.0242543561927631,0.0226186694618134,0.0230644910815431,0.0217086389677896,-0.00643702349754912,-0.00570411537455999,0.00689638967411007,0.0201697425851224,0.023493500968336,0.0294672026225968,0.00221885663382835,-0.000177509002020723,-0.012545918515138
108,0.0374057639043732,0.0226753665853783,-0.0113396417721088,-0.00156115199484278,-8.72665003820974E-05,0.021376591570448,-0.0400554221096164,0.0205634640152882,0.0177105041026249,0.0229959490070825,0.0128255736281913,0.00193384845055284,0.0192808693477845,0.0771434241172698,0.058158637377348,0.0138780702470883,0.0453131739402203,0.0245685763452581,0.0230042559095325,0.0231307378122936,0.0232356139328594,-0.00579304903637607,-0.00614107955333421,0.00730230898480427,0.0209540673671007,0.024081830197543,0.029614180213795,0.00182946213415712,-0.000591969167500169,-0.0124235542148095
109,0.0374821309219785,0.0222668445294387,-0.0109868627718121,-0.00108380905217465,0.000244953651404215,0.0218868007110931,-0.0399863108654717,0.020846622628585,0.0176621807087888,0.023950656948624,0.0127691130191331,0.00185176437283214,0.0199195779812687,0.0743007988457658,0.0592871387943999,0.013819260861113,0.0469072662648896,0.0248222763176163,0.0233498182732649,0.0232248684588252,0.0247250943030525,-0.00509668939407894,-0.00656991324916002,0.00770393165650581,0.0216937344112423,0.0246133190091405,0.0297349193104899,0.00142011817858998,-0.000984317509268882,-0.0122805078552932
110,0.0375098175418744,0.0218719457071072,-0.0105796285529166,-0.00056286349105625,0.000646522962236119,0.0223600450452596,-0.0397572701742651,0.0211558849201258,0.017656013174616,0.0249304306450892,0.0127028657661575,0.00177580098331,0.0205588573904422,0.0714387863961313,0.0603359907171768,0.0137616082606691,0.0484701257535115,0.0250155701152498,0.023653244401387,0.0233482616866728,0.0261687198390312,-0.00434710821232047,-0.00698914018823431,0.00809863873280493,0.0223874000704122,0.0250864218902324,0.0298292825390479,0.000992709052773919,-0.0013550327112691,-0.0121177280005387
111,0.0374898328818602,0.0215005699566197,-0.0101216053787264,-7.43151217150676E-07,0.00111668936358502,0.022791213705907,-0.039370799067838,0.0214937229726443,0.0176955446003091,0.0259310994391206,0.012628249990921,0.00170609908754704,0.0211977754290441,0.0685649076139651,0.0613063159310482,0.0137042960457168,0.0499945461476444,0.0251484182600181,0.0239126942932223,0.023501946266081,0.0275588936762257,-0.00354349760784502,-0.0073972774968816,0.00848390814640764,0.0230339245328062,0.0255001458062268,0.0298973042308731,0.000549322001169362,-0.00170454678955776,-0.0119361825088443
112,0.0374233113387417,0.0211625288085862,-0.009616753254884,0.000599899875699686,0.00165449971133177,0.0231758736336458,-0.0388301056879576,0.021862421374941,0.0177842156737446,0.0269484331667651,0.0125468992508807,0.00164264933521859,0.0218352877507278,0.0656864565600786,0.0621995196518521,0.0136464362918454,0.0514735189351075,0.0252206239494725,0.0241266151523622,0.0236865780127443,0.0288888514054474,-0.00268507994877684,-0.00779282587256754,0.00885734402025665,0.023632360561073,0.0258540445439572,0.0299392072285439,9.22391701113403E-05,-0.00203322087550922,-0.0117368589202499
113,0.0373115041244031,0.0208674088144492,-0.00906930648169018,0.00123619934574106,0.00225880074537502,0.0235102966750138,-0.0381390589697445,0.0222640518424365,0.0179253346407394,0.0279781849615334,0.0124606536080815,0.00158528466783195,0.0224702505885464,0.0628104909755764,0.0630172874686404,0.0135870894767932,0.0529002844218789,0.0252318362207166,0.0242937532991834,0.0239024221445719,0.0301527142367488,-0.00177111047395395,-0.00817426163127679,0.00921670370876218,0.0241819402832542,0.0261482052847059,0.0299554180627893,-0.000376073346254153,-0.00234132283924867,-0.0115207647161227
114,0.0371557707782052,0.020624433814422,-0.00848375159277034,0.00190508521302364,0.00292823821210782,0.0237914706404813,-0.0373021403950364,0.0227004480375843,0.0181220420272409,0.0290161347317921,0.0123715477451715,0.00153367526708888,0.0231014361733445,0.0599438244149506,0.0637615856806855,0.0135252846093762,0.0542683785257527,0.0251815600504275,0.0244131628167384,0.0241493414820234,0.031345525553684,-0.000800881018172648,-0.00854003113610417,0.00955992214081378,0.0246820604590252,0.0263832277448649,0.0299465799330366,-0.000852979307897842,-0.00262900723773788,-0.0112889272592779
115,0.0369575706644663,0.0204423285568634,-0.00786480256747251,0.00260329436778496,0.00366125443944294,0.0240170946867142,-0.0363243967236814,0.0231731806231371,0.0183772705490765,0.0300581328336513,0.012281796219066,0.00148732628321162,0.0237275503559149,0.0570930198796156,0.0644346632636518,0.0134600391999991,0.0555716747605988,0.0250691731842494,0.0244842108537308,0.0244267908092548,0.0324632705106308,0.000226274882691521,-0.00888854803896448,0.00988513308006693,0.0251322666617451,0.026560196349641,0.0299135629530943,-0.00133568888222695,-0.00289629802547852,-0.0110423932386434
116,0.0367184544485794,0.0203291861401129,-0.00721737325880957,0.00332738194387727,0.00445608473665683,0.0241855597490022,-0.0352113944600672,0.0236835326302923,0.0186937008609977,0.0311001434275573,0.0121937759728161,0.00144557858897383,0.0243472519501389,0.0542643847659357,0.0650390546252677,0.0133903787421038,0.0568044209799499,0.0248939493541595,0.0245065795582853,0.0247338175935827,0.033502878675817,0.00131097523434917,-0.00921819367771587,0.01019068698037,0.0255322368248823,0.0266806460241484,0.029857471164897,-0.00182127780298269,-0.00314307440774025,-0.0107822274633502
117,0.036440055533481,0.0202923417513337,-0.00654654704513862,0.00407373340811527,0.00531075306501774,0.024295915087037,-0.0339691766478939,0.0242324752861113,0.0190737139984429,0.03213828697694,0.0121100062575266,0.00140761276433694,0.0249591732792803,0.0514639669167214,0.0655775822626917,0.0133153554088419,0.0579612705573742,0.0246550874139804,0.0244802646655427,0.0250690691348782,0.0344622100679457,0.00245378091776126,-0.00952732086677708,0.0104751651831126,0.0258817646002611,0.0267465222945955,0.0297796458772793,-0.0023067089388224,-0.00336906014844731,-0.0105095108765355
118,0.0361240814312974,0.020338255122726,-0.00585754378925086,0.00483857765844138,0.00622306748602302,0.0243478223123285,-0.0326042224132436,0.0248206445167077,0.0195193415431357,0.0331688813241311,0.012033126149466,0.00137245646874069,0.0255619413849013,0.048697551538247,0.0660533584122032,0.013234065706465,0.0590373077943917,0.024351745803409,0.0244055708097305,0.025430806088014,0.0353400252662706,0.00365518488701772,-0.00981426120330321,0.0107373902766007,0.0261807429652883,0.0267601364879882,0.0296816649533978,-0.00278885602653706,-0.00357381656985398,-0.01022533768823
119,0.0357723050436118,0.0204724040124248,-0.0051556842699582,0.0056180013554052,0.00719061593811975,0.0243414985313698,-0.0311234094997348,0.0254483184199885,0.0200322146888601,0.0341884807644623,0.0119658698835713,0.00133899530372809,0.0261541993469425,0.0459706587217043,0.0664697847865028,0.0131456668630845,0.0600280674611588,0.023983081642049,0.0242831036764932,0.02581692217402,0.0361359405850685,0.00491559904907141,-0.0100773358868756,0.0109764325131877,0.0264291484971415,0.026724116899748,0.0295653377491383,-0.00326452927744609,-0.00375673940171782,-0.00993081155847795
120,0.0353865558273929,0.0206991908460076,-0.0044463523353762,0.00640796469200284,0.00821076291650487,0.0242776504595272,-0.0295339798654419,0.026115396079206,0.0206135134901424,0.0351939125352887,0.0119110402636515,0.00130598720853007,0.0267346271637563,0.0432885412939108,0.066830549524986,0.0130493917666583,0.0609295484884567,0.0235482936589274,0.0241137591533372,0.0262249697724713,0.0368503695871076,0.00623533870136894,-0.0103148699230749,0.0111916122559463,0.0266270267042329,0.0266413568629689,0.0294326954945999,-0.00373050252368077,-0.00391705955665304,-0.00962704079521799
121,0.0349687108309037,0.0210218644278312,-0.00373495511071432,0.00720431877149525,0.00928064763130202,0.0241574015324432,-0.0278435082444223,0.026821378161218,0.0212639176403607,0.036182310143118,0.0118714804513427,0.00127208036670124,0.027301961651945,0.0406561827208305,0.0671396205368966,0.0129445622979451,0.0617382219400526,0.023046668081339,0.0238987096747349,0.0266521909716265,0.0374844524613077,0.00761460447498381,-0.0105252094555217,0.0113824985016504,0.0267744787696921,0.0265149606991968,0.0292859770100517,-0.00418354153547762,-0.00405384782830527,-0.00931513256531476
122,0.0345206855932109,0.021442458355004,-0.00302688167329333,0.00800282471336178,0.0103971841954966,0.0239822141618988,-0.0260598734203963,0.0275653498064115,0.0219835601457477,0.037151142968864,0.0118500444790413,0.00123583453439086,0.0278550148478357,0.0380782948006883,0.067401234495383,0.0128306009320052,0.0624510335006696,0.022477626540529,0.0236393879935505,0.0270955535461156,0.0380399750026702,0.00905346181425637,-0.0107067418524622,0.0115489035996141,0.0268716500189247,0.0263481885575447,0.0291276097548736,-0.00462043311265109,-0.00416602343225453,-0.00899618615042088
123,0.0340444249106956,0.0219617474483476,-0.00232746068049484,0.00879917454680341,0.0115570643451538,0.0237538093501451,-0.0241912318198619,0.0283459663663486,0.0227719852386165,0.0380982416179641,0.0118495668748947,0.00119574563200824,0.0283926904256593,0.0355593149104133,0.0676198808415246,0.0127070405054395,0.0630654008145399,0.0218407750011851,0.0233374686418668,0.0275517912361531,0.0385192791042448,0.0105518181170735,-0.0108579180678885,0.0116908743555607,0.0269187203746721,0.0261444011559173,0.0289601863209995,-0.00503801453422593,-0.00425236623824174,-0.00867128531110842
124,0.0335418934830272,0.0225792231629592,-0.00164191749926737,0.00958901388256936,0.0127567631216769,0.0234740858901847,-0.022245992909851,0.029161442576414,0.0236281118090589,0.0390218185182666,0.0118728318284125,0.00115027337253751,0.0289139976922848,0.0331034026069929,0.0678002802806968,0.012573532066217,0.0635792061001374,0.0211359526872131,0.0229948473717828,0.0280174476185193,0.0389251667992438,0.0121093977597098,-0.0109772767078,0.0118086797751855,0.0269158970099124,0.025907005424713,0.028786436599194,-0.00543320294068113,-0.0043115324783519,-0.00834148985215385
125,0.0330150664586135,0.0232930885649251,-0.000975331435855145,0.0103679662810847,0.0139925478515719,0.0231450413398095,-0.0202327957851032,0.0300095457607038,0.0245502035323848,0.0399204833140523,0.0119225423614175,0.00109787163308812,0.0294180627746143,0.0307144354298299,0.06794735739814,0.0124298507393047,0.0639907845451531,0.0203632799580733,0.0226136188899178,0.0284889227889409,0.0392607999756423,0.013725715332641,-0.0110634691626756,0.0119027957622188,0.0268634093531213,0.0256394020195875,0.0286091959646446,-0.00580302422400717,-0.00434207366077687,-0.00800782650840556
126,0.0324659199051959,0.0241002730692911,-0.000332593699389667,0.0111316591617048,0.0152604906470853,0.0227686968660061,-0.0181604862546408,0.030887593652509,0.0255358467334571,0.0407932526596515,0.0120012899991051,0.00103702121277461,0.0299041366828146,0.0283960037968904,0.0680662071842471,0.0122758995555269,0.0642989090490528,0.0195232040884743,0.0221960532175369,0.0289625220191457,0.0395295979260924,0.015400047514412,-0.0111152851194183,0.0119738871390914,0.0267615065434483,0.0253449356163558,0.028431369944752,-0.00614464101200401,-0.004342458373741,-0.00767127929399877
127,0.0318964212350156,0.0249964667363546,0.000281633248470298,0.0118757510279373,0.0165564845260709,0.0223470279165787,-0.0160380936928614,0.0317924573744442,0.0265819368634143,0.0416395540815301,0.0121115254583718,0.000966264560862124,0.0303716000092535,0.0261514049327396,0.0681620554394193,0.0121117112047793,0.0645027719261171,0.0186165419200032,0.0217445710205344,0.0294345055111714,0.0397351348938532,0.0171314041049439,-0.0111316777406827,0.0120227874030767,0.026610457376505,0.0250268488292877,0.0282558959428472,-0.00645537935454672,-0.00431109662930683,-0.00733277947779625
128,0.0313085196163114,0.0259761735276693,0.000862954304071439,0.0125959597195662,0.0178762631174117,0.0218819024917884,-0.0138748069091786,0.0327205700572359,0.0276846742746172,0.0424592236543619,0.0122555308838641,0.00088424200526918,0.0308199641075986,0.0239836358088187,0.0682402132183419,0.0119374476899373,0.0646019642080027,0.0176445183868129,0.0212617182590018,0.0299011383481736,0.0398810397322719,0.0189184988234342,-0.0111117877965078,0.0120504766653918,0.0264105527254201,0.0246882405060597,0.0280857026924744,-0.006732753749847,-0.0042463663714588,-0.00699319536505321
129,0.0307041364047787,0.027032782538956,0.00140727765389964,0.0132880913468746,0.0192154237856758,0.021375028565727,-0.0116799483157346,0.0336679414863482,0.028839569772646,0.0432524973253165,0.0124353941650552,0.000789728963801149,0.0312488686869669,0.0218953851160169,0.0683060256678005,0.0117533978764733,0.0645964531908754,0.016608799969024,0.0207501405039136,0.0303587397367272,0.0399708997129189,0.020759720545728,-0.011054966051843,0.0120580582438537,0.0261621103668664,0.0243320290510231,0.0279236682033376,-0.00697449018639768,-0.00414664175584793,-0.00665332207976225
130,0.0300851556312057,0.0281586558635669,0.0019108474211433,0.0139480695159368,0.0205694538817457,0.020827911950951,-0.00946294573590261,0.0346301790532112,0.0300414602072303,0.0440199958221539,0.012652985858837,0.000681673579566309,0.031658075849946,0.0198890243287301,0.0683648158033633,0.0115599729562241,0.0644865588583755,0.0155115221968622,0.0202125572581468,0.0308037306517487,0.040008170397785,0.0226531057088625,-0.0109607932528497,0.0120467343905301,0.0258654820879051,0.0239609213159677,0.027772577027934,-0.00717854691933744,-0.00401032279836558,-0.00631387155419869
131,0.0294534145858289,0.0293452314060492,0.00237027246617535,0.0145719644181716,0.0219337597104294,0.0202418256169038,-0.007233301296319,0.0356025151562782,0.0312845341447647,0.0447627031946851,0.0129099392206227,0.000559234188466369,0.0320474606981313,0.0179665979602917,0.0684218239507897,0.011357699872076,0.0642729297793877,0.0143553104152905,0.0196517366007554,0.0312326790321134,0.0399960933362669,0.0245963126441809,-0.0108290971133615,0.0120177816342476,0.0255210628967306,0.0235773874768064,0.0276350777241268,-0.00734313274642291,-0.00383586598482952,-0.00597546294195181
132,0.0288106945464048,0.0305831386686124,0.00278255084113122,0.015156021332907,0.0233036977056876,0.0196177911695098,-0.00500055697890711,0.0365798410510834,0.0325623674504268,0.0454819391646247,0.0132076338121429,0.000421816000955982,0.032416998721565,0.0161298131527002,0.0684821437405398,0.0111472127825167,0.0639565190309206,0.0131432931223408,0.0190704704480787,0.0316423417320527,0.0399376231606892,0.0265865986134113,-0.0106599657787901,0.0119725262044057,0.025129302108978,0.0231836421880497,0.0275136414115098,-0.00746672259686703,-0.00362181543321257,-0.00563861367806924
133,0.0281587117052165,0.0318623252806071,0.00314508947193915,0.0156966880796779,0.0246746072216409,0.0189565728830003,-0.00277425657133512,0.0375567469934119,0.0338679684033217,0.0461793255932156,0.0135471831058539,0.000269106362906151,0.032766750275841,0.0143800287876796,0.0685506556816564,0.0109292426791646,0.0635385606341739,0.0118791073138354,0.0184715506944853,0.0320297025085662,0.0398353654380642,0.0286208003136272,-0.0104537573357391,0.011912319978416,0.0246907160317542,0.0227816321768856,0.027410522317678,-0.00754807029454462,-0.00336683420190745,-0.00530373141452623
134,0.0274991083592123,0.0331721918378996,0.00345571872501289,0.0161906409583422,0.0260418442841381,0.0182586843528064,-0.000563903937025225,0.0385275683616012,0.0351938317771583,0.046856747515059,0.0139294264446021,0.00010110795184299,0.0330968425292773,0.0127182443481736,0.0686319594491383,0.0107046053043915,0.0630205469193714,0.0105668954019739,0.0178577464614172,0.0323920054155596,0.0396915263945883,0.030695318586985,-0.0102111050388621,0.0118385173618694,0.024205901920845,0.0223730303074234,0.0273277211847646,-0.00758621840437715,-0.00306973534152228,-0.00497110706055725
135,0.0268334444360121,0.0345017324695658,0.00371270160829445,0.0166348087304607,0.027400815603672,0.0175244075176093,0.00162108227999108,0.0394864372886887,0.0365320011439935,0.0475163093249406,0.0143549256419211,-8.18307345230787E-05,0.0334074493293926,0.0111450887956159,0.0687303060929375,0.0104741875480641,0.0624042071557584,0.00921129342434052,0.0172317826480364,0.0327267830779937,0.0395078753676423,0.0328061080200746,-0.00993291803897579,0.0117524534701236,0.0236755528436617,0.0219592360155872,0.0272669523578813,-0.00758050511628429,-0.00272951229279947,-0.00464090915484791
136,0.0261631894356903,0.0358396784570692,0.00391473745517548,0.0170263942245859,0.0287470121258288,0.0167538234866311,0.00377141720442001,0.0404273391878077,0.0378741385010642,0.048160286836293,0.0148239664244944,-0.00027898823039683,0.0336987694905608,0.00966080975549386,0.0688495314154084,0.0102389325307213,0.0616914877011128,0.00781741042168127,0.0165963199418697,0.033031879430847,0.0392857205630895,0.0349486720462705,-0.00962037751481514,0.011655423934443,0.023100473042505,0.0215413818886546,0.0272296153068848,-0.00753056816434171,-0.00234536823875329,-0.00431317978953317
137,0.025489714873706,0.0371746421987386,0.00406096004258239,0.0173628931901394,0.030076041390417,0.0159468543118502,0.00587800103502974,0.0413441734192299,0.0392116001821189,0.0487910760498095,0.0153365648255698,-0.000489246907654983,0.033971004041653,0.00826526332008904,0.0689929917686522,0.00999982360410801,0.0608845338440244,0.00639079903483282,0.0159539364144154,0.0333054666253371,0.0390258984091595,0.0371180640733556,-0.00927492823174558,0.0115486666071559,0.0224815933607843,0.021120346042874,0.0272167712429948,-0.0074363458192144,-0.00191674402452048,-0.00398783229375496
138,0.0248142873143564,0.0384952588419325,0.00415093019862091,0.0176421100777049,0.0313836579853382,0.0151033145703071,0.00793197243758792,0.0422308172282833,0.0405355178965581,0.0494111395740549,0.0158924785382299,-0.000711074318547169,0.034224332993146,0.00695790478277838,0.0691635034975468,0.00975786751822237,0.0599856734357315,0.00493741754994654,0.0153071107949938,0.0335460559262304,0.0387287765079848,0.0393088950488265,-0.0088982656707595,0.011433345390359,0.0218199862702814,0.0206967698400136,0.0272291253842905,-0.00729807502899718,-0.00144334426343048,-0.00366465086664104
139,0.0241380620871611,0.0397903229978713,0.004184623058078,0.0178621704855697,0.0326657914166221,0.0142229713746622,0.00992476321096599,0.0430811919830377,0.0418368836437909,0.0500229517231483,0.0164912231323036,-0.000942509618941616,0.0344588921879287,0.00573778061428043,0.0693632872037135,0.00951407701650796,0.0589974023396421,0.00346358380214748,0.0146582074860755,0.0337525025470845,0.0383942698975976,0.0415153477482781,-0.00849231898665269,0.0113105363630629,0.0211168800218795,0.0202710803809137,0.027267015301474,-0.00711628681661708,-0.00092516125245542,-0.00334329232555479
140,0.0234620777809322,0.0410489181093791,0.00416241022330539,0.0180215300807599,0.0339185707719718,0.0133056112156221,0.0118481532947237,0.0438893306618048,0.0431066371780706,0.0506289433771294,0.0171320929304022,-0.00118115556602808,0.034674750790044,0.00460352197996334,0.0695939179355624,0.0092694531273945,0.0579223716681742,0.00197592152578304,0.0140094633547136,0.0339240044928419,0.0380218700563537,0.0437311979308206,-0.00805923016179285,0.0111812163334843,0.020373671436892,0.0198435171227199,0.0273304056403626,-0.00689179907015324,-0.000362496324960709,-0.00302329010509773
141,0.0227872516116617,0.0422605362571338,0.00408503718121338,0.0181189798751871,0.0351383456310287,0.0123511118620635,0.0136943251009127,0.0446494454854399,0.0443357546520594,0.051231447726702,0.0178141862294047,-0.00142417652474538,0.0348718899426882,0.0035533400812972,0.0698562823235719,0.00902496742114745,0.0567633767295295,0.000481299908902876,0.0133629763075967,0.0340600955990825,0.0376106858135971,0.0459498423536189,-0.00760132981782207,0.011046253897255,0.0195919368624884,0.0194141618880358,0.0274188893735324,-0.00662570688507274,0.000244021725437847,-0.00270406060561407
142,0.022114375759913,0.0434151864600239,0.00395359641204676,0.0181536478116876,0.0363217027697253,0.0113595174072294,0.01545591610036,0.0453559945598215,0.0455153370466721,0.0518326480345537,0.0185364344462094,-0.00166830284781387,0.0350501830931159,0.00258502358610206,0.0701505435794372,0.0087815444963141,0.055523347571569,-0.00101323273481408,0.0127206956320762,0.0341606330718518,0.0371594950800599,0.0481643334804412,-0.00712111022878706,0.0109064030391235,0.0187734408335227,0.0189829714703736,0.0275316955837988,-0.00631937063399201,0.000893421507495349,-0.0023849119470661
143,0.0214441147699909,0.0445034898414701,0.00376949670021192,0.0181249966888397,0.0374654783158667,0.0103311144551198,0.0171260685750152,0.0460037463905216,0.0466366970013169,0.0524345285297752,0.0192976346633943,-0.00190984191554544,0.0352093784397366,0.00169593839344274,0.0704761151621194,0.00854004495058477,0.0542053409850372,-0.00250052012655318,0.012084414063084,0.0342257799384873,0.0366668060840268,0.0503674205622372,-0.00662119614304917,0.0107622992755751,0.0179201420147251,0.0185498119926681,0.0276677036303862,-0.00597440195015661,0.0015843775256489,-0.00206505513556861
144,0.0207770040957768,0.0455167603853935,0.00353442921992134,0.0180328185259992,0.0385667651349528,0.00926650739221463,0.0186984754634368,0.0465878411542057,0.0476914426930788,0.0530388295097388,0.0200964849543233,-0.00214469603420226,0.0353490839073652,0.000883029961417802,0.0708316437821414,0.00830124907742096,0.0528125338119025,-0.00397337285064027,0.0114557615170926,0.0342559829153994,0.0361309265993926,0.0525515966168068,-0.00610431406627529,0.0106144582988123,0.0170341960417579,0.0181144941459382,0.0278254633986024,-0.00559264781597636,0.00231520262791558,-0.00174361759629546
145,0.0201134498663278,0.0464470703808788,0.00325033101767218,0.0178772255397307,0.0396229153551532,0.00816669068727087,0.0201674212760752,0.0471038476583612,0.0486715574758037,0.0536470076549714,0.020931621781048,-0.00236838729639976,0.0354687550015423,0.000142828410638693,0.071215002267929,0.00806584151314518,0.0513482173938827,-0.00542464559650635,0.0108362004200493,0.0342519462807969,0.035550039483654,0.0547091506944921,-0.00557326068313161,0.0104632770487746,0.0161179549369709,0.0176768084248978,0.0280032211898132,-0.00517617294883035,0.00308384470308269,-0.00141965896891689
146,0.0194537299283953,0.0472873000410387,0.00291934654924384,0.0176586379685591,0.040631538074039,0.00703311620667124,0.0215278171397701,0.0475478149903621,0.0495694740800449,0.0542602024669161,0.0218016586851478,-0.00257608940489502,0.0355676858330638,-0.000528543396926924,0.071623292656974,0.00783439704008625,0.0498157929886884,-0.00684731549752945,0.0102270225470597,0.0342146024069693,0.0349222827111931,0.0568322246913197,-0.0050308711009758,0.0103090371092832,0.0151739628455704,0.0172365594875561,0.0281989506750717,-0.00472724067460106,0.00388788788243857,-0.00109218900155088
147,0.0187979962037274,0.0480311711669705,0.00254378795144847,0.0173777690435334,0.0415904924228932,0.00586775362441122,0.0227752291446429,0.0479163179462093,0.0503781422914215,0.0548792096158989,0.0227052254346966,-0.00276266635321966,0.0356450035403617,-0.00113535861550316,0.0720528597044905,0.00760736773056198,0.0482187679752639,-0.00823456021504206,0.00962934728755507,0.0341450796567939,0.034245831992738,0.0589128738627627,-0.00447998758536423,0.0101519102968501,0.0142049479198084,0.0167935987970762,0.0284103882175551,-0.00424829247689632,0.00472455845088478,-0.000760187318130079
148,0.0181462783773054,0.0486732651007402,0.00212609473928276,0.0170356074562213,0.042497876293008,0.00467314214304903,0.0239058993078256,0.048206495436188,0.0510910891663198,0.0555044618371905,0.0236410067531274,-0.00292271774430168,0.0356996662713635,-0.00168227183220593,0.0724993148283786,0.00738507159479654,0.0465607526636178,-0.00957983440947763,0.00904412125030928,0.0340446683821923,0.0335189840175786,0.0609431301019026,-0.00392342942552633,0.00999196628598903,0.0132138102716522,0.0163478547559906,0.028635071770397,-0.00374192640853508,0.0055907356109296,-0.00042262477411576
149,0.0174984889091781,0.0492090255621197,0.00166879361851669,0.0166333977221259,0.0433520111482492,0.00345243192239993,0.0249167586325309,0.048416081187143,0.0517024710072757,0.0561360178375905,0.0246077797407254,-0.00305063041289867,0.0357304648192749,-0.00217430097780259,0.0729575703367709,0.00716768287431231,0.0448454575201281,-0.0108769432634134,0.0084721191271827,0.033914785778498,0.0327402383420553,0.0629150669764,-0.00336396451964637,0.00982918209272725,0.0122036060164297,0.015899359613837,0.028870382481254,-0.00321087455315526,0.00648296717140406,-7.84860588676826E-05
150,0.0168544293374709,0.049634747284146,0.00117445909299624,0.0161726188748248,0.0441514234555291,0.00220941383264048,0.0258054319222498,0.0485434261973115,0.0522071165020452,0.0567735594757261,0.0256044491086623,-0.00314063590090097,0.035736027939629,-0.00261680558126104,0.0734218836172177,0.0069552241019594,0.0430766906166657,-0.0121201117732146,0.00791394574189463,0.033756940348751,0.0319083759762881,0.0648208654705408,-0.00280428320703387,0.00966345321810487,0.0111775275385644,0.0154482725168647,0.0291135880855006,-0.0026579797297462,0.00739749015183152,0.00027320684797557
151,0.0162137978133395,0.0499475516459281,0.000645675525498116,0.015654961953173,0.0448948233563694,0.000948536402575433,0.0265702342021716,0.0485875125479538,0.0526005606256511,0.0574163972606523,0.0266300793793768,-0.00318687321804683,0.0357148313099316,-0.0030154612366163,0.0738859108075934,0.00674756003143941,0.0412583551128067,-0.0133040486064353,0.00737003921945752,0.0335726967168096,0.0310225327906737,0.0666528793533259,-0.00224697479985388,0.00949460623545404,0.0101388802222593,0.0149948981693405,0.0293618871472898,-0.00208617164182348,0.0083302562046217,0.000633370801776611
152,0.0155761977800694,0.0501453507424365,8.50012809349765E-05,0.0150823067596362,0.0455810812759897,-0.000325090884440441,0.0272101587967201,0.0485479583344817,0.0528790691082311,0.0580634839822242,0.0276839232648404,-0.00318345620611742,0.0356652100290685,-0.00337623017446191,0.074342769320311,0.00654439352344078,0.0393944465857122,-0.014424003429499,0.00684067522214601,0.0333636414990514,0.0300822659735258,0.0684036990930401,-0.00169450718416372,0.00932241258887193,0.00909105600055528,0.0145397006865261,0.0296124532112579,-0.00149844268545102,0.00927696166235495,0.00100283766856447
153,0.0149411476787424,0.0502268015264142,-0.000505064459035226,0.0144566983715398,0.0462092032198565,-0.00160570849260934,0.0277248573068709,0.0484250136462042,0.0530396534774968,0.0587134360519633,0.0287654455139095,-0.0031245447141014,0.0355853744920279,-0.00370532785989175,0.0747851084555415,0.00634526346231667,0.0374890500319949,-0.0154758167418808,0.00632597220804593,0.0331313509025803,0.0290876119202859,0.0700662132646204,-0.0011492097717214,0.00914660335528752,0.00803750418053559,0.014083312336163,0.0298624779554923,-0.000897823645336695,0.0102330819184653,0.00138233104122289
154,0.0143080915331715,0.0501912518043548,-0.00112211167041027,0.0137803238784852,0.0467783055408155,-0.0028869321657071,0.0281146119176687,0.0482195476955056,0.0530800768869947,0.0593645619047557,0.0298743416192327,-0.00300441868701367,0.0354734294172666,-0.00400918557454203,0.0752051872182192,0.00614954476607143,0.0355463363790845,-0.0164559614054716,0.00582589767737664,0.0328773606643722,0.0280391341216194,0.0716336664490252,-0.000613259993329471,0.00896688470863765,0.00698170009509196,0.0136265369854582,0.0301092124858573,-0.00028735952424875,0.011193909749224,0.00177244399493844
155,0.0136764102390343,0.0500386799652624,-0.00176384576960734,0.0130554897987308,0.047287589972905,-0.00416179260320202,0.02838030063999,0.0479330273710442,0.0529988511341532,0.0600148965994035,0.0310105508907978,-0.00281755417390173,0.0353273957502543,-0.00429440898289674,0.0755949583502577,0.00595645054230662,0.0335705583582926,-0.017361575226563,0.00534027537899593,0.0326031388816189,0.0269379598404109,0.0730997127024725,-8.86734339746694E-05,0.00878295381178163,0.00592711220722901,0.0131703481919173,0.0303500059799855,0.000329914233836957,0.0121545970862641,0.00217361837581569
156,0.0130454333584376,0.0497696303676642,-0.00242810979181482,0.0122846005957064,0.0477363197210768,-0.00542278908068737,0.02852335624708,0.0475674876616272,0.0527952254494518,0.0606622415681497,0.0321742635352121,-0.002558700172984,0.0351452351185623,-0.00456773273235759,0.0759461575059693,0.00576503643243516,0.0315660456054679,-0.0181904841278742,0.0048687934539303,0.0323100622095074,0.0257858046229521,0.0744584637747328,0.000422702378000012,0.00859451484998266,0.00487716834680105,0.0127158819971928,0.0305823409734964,0.000950994854136922,0.0131101996556928,0.00258612609824843
157,0.012414451203356,0.0493851463085943,-0.00311290212828615,0.0114701386741412,0.0481237973697256,-0.00666195631136602,0.0285457198025531,0.0471254945634363,0.0524691677943864,0.0613042083081821,0.0333659215253867,-0.00222295515581355,0.0349248764724858,-0.0048359711925302,0.0762503964366547,0.00557420717449024,0.0295371988654626,-0.0189412156338815,0.00441101349366393,0.0319993958197262,0.024584983972495,0.075704531374921,0.000919190599065097,0.00840129490952052,0.00383522178875929,0.0122644246017522,0.0308038646788538,0.00157293439476144,0.0140557238161748,0.00301005289527445
158,0.0117827269807087,0.0488867024508481,-0.00381638956962862,0.0106146461847408,0.0484493453274998,-0.00787094355832835,0.0284497897898482,0.0466101012384972,0.0520213395360786,0.0619382646863813,0.0345862132022599,-0.00180584204991561,0.0346642445114885,-0.00510596550116141,0.076499259009735,0.00538272539990259,0.0274884831821458,-0.0196130025792301,0.00396638048767738,0.0316722774224143,0.0233384118168286,0.0768330629150361,0.00139928426503365,0.0082030593971572,0.00280451788526282,0.0118173952126908,0.0310124158364528,0.00219286068242142,0.014986174858238,0.00344528492261377
159,0.011149508768662,0.0482761384955109,-0.004536915492744,0.00972070890824062,0.0487122894617393,-0.009041104742196,0.0282383679414548,0.0460247983317833,0.0514530644659574,0.0625617824458336,0.0358360617156387,-0.00130338041261845,0.0343612894711013,-0.00538452715129923,0.0766843988672706,0.00518922266068507,0.0254244199564052,-0.0202057771324769,0.00353423362708697,0.0313297055577611,0.0220495857168827,0.0778397703005672,0.00186164227147144,0.00799962669201951,0.00178816194210493,0.011376324464923,0.0312060467157223,0.00280799674552647,0.0158966059739785,0.00389149856263648
160,0.0105140410978125,0.0475555957599789,-0.00527300312580739,0.0087909424251519,0.0489119464936357,-0.0101635980504298,0.0279146029279958,0.0453734594734434,0.050766293195722,0.0631720844623834,0.0371166075813016,-0.000712154499825314,0.0340140178271122,-0.00567837842549026,0.076797637526003,0.00499221266008904,0.0233495777520825,-0.02072015540188,0.00311381791942795,0.0309725322631563,0.0207225590805926,0.0787209514793813,0.00230508242204601,0.00779088172245882,0.000789088985106799,0.0109428289143593,0.0313830400086928,0.00341567848520753,0.0167821670728693,0.00434815371063519
161,0.00987557592163826,0.0467274581619756,-0.00602335392738709,0.00782798070764728,0.0490476156258397,-0.0112294933482389,0.0274819331015071,0.0446602830873478,0.0499635639941756,0.0637664903053698,0.0384291858015572,-2.93759240960944E-05,0.0336205234633518,-0.00599409005706486,0.0768310617338365,0.00479010663217972,0.0212685617270553,-0.0211574130532605,0.00270429655443942,0.0306014601200608,0.0193619009550276,0.0794735046014906,0.00272857188086207,0.00757678816801345,-0.000189964002257262,0.0105185821874551,0.0315419204865667,0.00401337034862584,0.0176381526068082,0.00481449075418416
162,0.00923338277747601,0.0457942989220269,-0.00678684122077211,0.00683446719570451,0.0491185747593494,-0.0122298855214829,0.0269440294936449,0.0438897316946081,0.0490479611236337,0.0643423587118117,0.0397752981614411,0.000747060391853932,0.0331790188454239,-0.00633801657461805,0.0767771189239443,0.00458123078471062,0.0191860015674737,-0.0215194525197935,0.00230476394338301,0.0302170435842089,0.0179726442602022,0.0800949347809357,0.00313121540987478,0.00735739900185131,-0.00114648286875196,0.0101052834420907,0.0316814614176869,0.00459867880120536,0.0184600475759625,0.00528953137883232
163,0.00858675796194386,0.044758834084999,-0.00756249933032159,0.00581304834183935,0.0491240815285992,-0.0131560117535906,0.0263047402481615,0.0430664699394224,0.0480230716960714,0.0648971256889674,0.0411565814675769,0.00161852822612077,0.0326878657449097,-0.00671622986240178,0.0766287096457454,0.00436384568631311,0.0171065378114192,-0.0218087625181941,0.00191425933633538,0.0298196944059965,0.0165602235914481,0.0805833535855064,0.00351224180832524,0.00713286511265963,-0.0020781977027423,0.0097046238483497,0.0318006858687568,0.00516936343449712,0.0192435709155904,0.0057720832517154
164,0.00793503257298859,0.0436238837301456,-0.00834950857008772,0.00476636952889759,0.049063379246173,-0.0139993706545174,0.0255680376182374,0.0421953025743693,0.0468929419996181,0.0654283371145993,0.0425747726366964,0.0025856312359018,0.0321456050668242,-0.00713445154506134,0.076379275900259,0.00413616744459785,0.0150348064674301,-0.0220283707037926,0.00153178090420233,0.0294096908575664,0.0151304039469746,0.08093747150936,0.00387098899772875,0.00690344177699287,-0.00298310054460773,0.00931825183371011,0.0318988631259041,0.00572334559313234,0.0199847155116004,0.00626074855075979
165,0.0072775793042664,0.0423923414933105,-0.00914717653264694,0.00369707318544923,0.048935707705812,-0.0147518411216057,0.0247379685838346,0.0412811136239505,0.0456620341487075,0.0659336749021617,0.0440316716616715,0.00364817442560798,0.0315509853476344,-0.00759798487829479,0.0760228843642622,0.00389639048738729,0.0129754218658956,-0.0221817903971961,0.00115630015560333,0.0289871904016276,0.0136892019286774,0.0811565838068327,0.004206888213363,0.00666949279319896,-0.00385945919108417,0.00894773785571723,0.0319755005743122,0.00625871445611856,0.0206797841577655,0.00675393622300153
166,0.00661381791572852,0.0410671527694585,-0.00995491621458087,0.00260779884602123,0.0487403186492268,-0.0154057988193533,0.0238186100433404,0.0403288079001303,0.0443351837899707,0.0664109760312015,0.0455291035810247,0.00480514692367123,0.0309029895121835,-0.00811164689558142,0.0755543035519665,0.00364271172575881,0.0109329577281766,-0.0222729623964522,0.000786776543470164,0.0285522453665144,0.0122428011146221,0.0812405501816624,0.00451944777165926,0.00643149213537624,-0.00470582697502783,0.00859453946736515,0.0320303314617233,0.00677373056250258,0.0213254208487219,0.00724987777336269
167,0.00594321934604222,0.0396513017039718,-0.0107722215912812,0.0015011848319126,0.048476495563555,-0.0159542282151022,0.0228140294091984,0.0393432559732953,0.0429175594554039,0.0668582440013527,0.0470688806502885,0.00605471696038463,0.030200859505268,-0.00867970162270445,0.0749690740337631,0.00337335584526386,0.00891192649861027,-0.0223061929497974,0.000422172102096153,0.02810482113413,0.0107974634095106,0.0811897689328979,0.00480823688262299,0.0061900230391388,-0.00552104849456248,0.00825996742755984,0.0320632990405114,0.00726682682684784,0.0219186368984181,0.00774664630734027
168,0.00526530847648296,0.0381478068229747,-0.0115986413151089,0.000379871166041373,0.0481435773465795,-0.0163908281966507,0.0217282512914442,0.0383292436076719,0.0414146240000233,0.0672736525403887,0.0486527659579381,0.00739423979017863,0.0294441184467558,-0.00930579522361148,0.0742635709086482,0.00308660144050819,0.00691675705550238,-0.0222860890044362,6.14659424058245E-05,0.0276448163034758,0.0093594382440059,0.0810051462551601,0.00507286996755882,0.00594577448869699,-0.00630426134748978,0.00794515358266754,0.0320745376348766,0.00773660714374284,0.0224568314814416,0.00824217847973078
169,0.00457966560062882,0.0365597249024197,-0.0124337512553667,-0.000753496714617197,0.0477409852597238,-0.0167101094211497,0.0205652307891202,0.0372914265528784,0.0398320983997775,0.0676555416718406,0.0502824397432546,0.00882027913098928,0.0286325899968876,-0.0099928939803075,0.0734350578101141,0.00278080767773907,0.0049517709943336,-0.0222174918660279,-0.00029633157833285,0.0271720842633305,0.0079348715145199,0.0806880614746942,0.00531299192502249,0.00569953513497391,-0.00705489399894289,0.00765102120669524,0.0320643512148067,0.00818184273059037,0.0229378063121372,0.0087342989387081
170,0.0038859266978474,0.0348901624389017,-0.0132771266245562,-0.0018962639201981,0.0472682524872695,-0.0169074816977377,0.0193288337310184,0.0362342914442053,0.0381759280242688,0.0680024065151914,0.0519594696574201,0.010328642501548,0.0277664146594501,-0.0107432260332825,0.0724817318144222,0.00245444113959161,0.00302115775420108,-0.0221054104018153,-0.000652165205546786,0.026686455593756,0.00652971613185066,0.0802403290718291,0.00552826476210268,0.00545218473499582,-0.00777265997230753,0.00737825843836126,0.0320331900782478,0.00860146640252395,0.0233597743007343,0.00922074680180763
171,0.00318378264922451,0.0331422938679506,-0.0141283144420755,-0.00304576223145233,0.0467250555364072,-0.0169793298850524,0.0180228240183085,0.035162123405265,0.0364522513452722,0.0683128794420387,0.0536852861622815,0.0119144306256126,0.0268460627935831,-0.011558227815354,0.0714027587148209,0.00210610247547959,0.00112894893127479,-0.0219549548981753,-0.00100692185460769,0.0261877607175132,0.00514964598077147,0.0796641583931048,0.0057183559739271,0.0052046832613275,-0.00845754860597457,0.00712729539425209,0.0319816262492637,0.00899456501124087,0.0237213621535377,0.00969920365864915
172,0.00247297757001176,0.0313193854831926,-0.0149868070735774,-0.00419930687326547,0.0461112466482593,-0.0169230769854915,0.0166508580272745,0.0340789807705606,0.034667370902961,0.0685857064366421,0.0554611641845608,0.0135721008421189,0.0258723441491353,-0.0124384960994536,0.0701982982248737,0.00173455245087989,-0.000721007814122793,-0.0217712726415543,-0.00136141859783802,0.0256758522387241,0.00379997498562252,0.0789621119905224,0.00588292901187074,0.00495805788470114,-0.00910981266250769,0.00689828546928179,0.0319103281947119,0.00936037031013534,0.0240216070120232,0.0101673225651431
173,0.00175330646050772,0.0294248238469671,-0.0158520175519941,-0.00535419440558763,0.0454268863459914,-0.0167372333378282,0.0152164858360954,0.0329886771559586,0.0328277262328331,0.0688197187023226,0.0572882120392833,0.0152955442145769,0.0248464137850656,-0.0133837465492852,0.0688695187780839,0.00133873696051894,-0.00252507480074303,-0.0215594862310478,-0.00171639176990319,0.0251506264363226,0.00248558283305512,0.0781370635393783,0.00602163613062511,0.00471338808137815,-0.00972995311331224,0.00669109125946439,0.0318200354468057,0.00969824853112482,0.0242599473496896,0.0106227574758222
174,0.00102461239538586,0.0274621473538527,-0.0167232573357215,-0.00650770215983893,0.0446722752231223,-0.016421431045639,0.0137231588508971,0.0318947709065534,0.0309398683618172,0.0690138007114539,0.0591673685087574,0.0170781757752831,0.0237697742750381,-0.0143927796110507,0.0674186016990897,0.000917810546554101,-0.00427984982951758,-0.0213246355520695,-0.00207248738181085,0.0246120434226184,0.0012108487276079,0.0771921562785631,0.00613411384649141,0.00447178915784735,-0.0103187014515882,0.00650527545820018,0.0317115336952365,0.0100076889740716,0.0244362084620233,0.0110631925551357
175,0.000286783478341754,0.0254350795165673,-0.017599717092184,-0.00765708959143485,0.0438479840732595,-0.0159764430280697,0.012174243228293,0.0308005617493034,0.0290104354146568,0.069166856013279,0.061099408817614,0.0189130370744089,0.0226442741489255,-0.0154634545152663,0.0658487346335572,0.000471157945961642,-0.00598219063720426,-0.0210716242445853,-0.00243025301960474,0.024060145530832,-2.04056450290911E-05,0.0761307628871517,0.0062199811745331,0.00423439451837945,-0.0108769999095271,0.00634009698656768,0.0315856308813079,0.0102882919179395,0.0245505829904869,0.0114863708153649
176,-0.000460250215932831,0.0233475624914965,-0.0184804510130399,-0.00879960184538453,0.0429548814814144,-0.0154041863387067,0.0105730383287059,0.0297090942781191,0.0270461288326978,0.0692777721891395,0.0630849600854952,0.0207929099357961,0.0214721025634589,-0.0165926720712542,0.0641640942389971,-1.58681575689665E-06,-0.00762923778727624,-0.0208051713877085,-0.00279013138394741,0.0234950735575445,-0.0012049629917744,0.074956447658425,0.00627884074126336,0.00400233702534444,-0.0114059799722975,0.0061945125214435,0.0314431347884681,0.0105397561640527,0.0246036070131077,0.0118901215485304
177,-0.00121651950634287,0.0212037893501817,-0.0193643650730379,-0.00993247574460355,0.0419941580361282,-0.0147077096645016,0.00892279929084206,0.0286231677082192,0.0250536896966676,0.0693453863789076,0.0651245266715173,0.0227104400561098,0.0202557802398329,-0.0177763668348883,0.0623698182561277,-0.000500524262213449,-0.009218435495121,-0.0205297689973121,-0.00315245560129915,0.0229170805541523,-0.00234024639944628,0.0736729317576978,0.00631028279327807,0.00377672981799936,-0.0119069395910776,0.00606718348393286,0.0312848325791787,0.010761866516286,0.0245961323098438,0.0122723860521886
178,-0.00198201859562076,0.019008233633649,-0.0202502095407291,-0.0110529483130895,0.0409673463799288,-0.0138911651863186,0.00722676269663127,0.0275453511610818,0.0230398746618925,0.0693684527964731,0.0672185256515918,0.0246582688284422,0.018998146750664,-0.0190095091147114,0.0604719671985739,-0.00102547669305993,-0.0107475499089461,-0.0202496457978118,-0.0035174464067663,0.0223265429330444,-0.00342434395002671,0.0722840622547624,0.00631389204194526,0.00355864696284725,-0.0123813194999561,0.00595648844625613,0.0311114726774741,0.0109544814909907,0.0245292954691598,0.0126312411937615
179,-0.00275670703720714,0.0167656747974135,-0.0211365759386747,-0.01215826784251,0.0398763363921568,-0.01295976525187,0.00548817420186292,0.026478003587459,0.0210114310567458,0.069345613607775,0.0693673324923182,0.0266291715330033,0.0177023442830143,-0.0202861171551284,0.0584774760156859,-0.00157597922231121,-0.0122146844061359,-0.0199687375872373,-0.00388521126369606,0.0217239687268577,-0.00445602171687653,0.0707937855072435,0.00628925720166489,0.00334910430803116,-0.0128306790367669,0.00586054080990181,0.0309237493400295,0.0111175215313178,0.024404484542708,0.0129649204137025
180,-0.00354051106567358,0.0144812182642049,-0.0220218985363997,-0.0132457074055557,0.0387233848918238,-0.0119197245761688,0.00371031694501246,0.0254232973094671,0.0189750707600979,0.0692753744642085,0.0715713368033823,0.0286161998242905,0.0163717980476184,-0.0215992797007844,0.0563940961969665,-0.00215127499736571,-0.0136182915173442,-0.0196906643702915,-0.00425574544681947,0.021110002910677,-0.00543472512899447,0.0692061253399736,0.0062359829965704,0.00314904090610432,-0.0132566718559159,0.00577721150375743,0.0307222901962188,0.0112509579768691,0.0242233039779992,0.0132718318323854
181,-0.00433332421467532,0.0121603089460776,-0.0229044603441416,-0.0143125806173281,0.0375111193576465,-0.0107781889391351,0.00189653951953746,0.0243832440688255,0.0169374425574144,0.0691560858696512,0.0738310078635117,0.0306128262643039,0.0150101935463251,-0.0229411890064336,0.0542303288950837,-0.00275031489836696,-0.0149571811571513,-0.0194187142913383,-0.00462893507543251,0.0204854297657596,-0.00636056891553189,0.0675251663204047,0.00615370433054866,0.00295930135454296,-0.0136610219022738,0.00570415635041968,0.030507646969867,0.0113548030110224,0.0239875385653792,0.013550573196572
182,-0.00513500718245586,0.00980873727414722,-0.0237824034626232,-0.0153562593517153,0.0362425352860833,-0.00954315158904216,5.02823066943987E-05,0.0233597224111295,0.0149051027732448,0.0689859314133167,0.0761469694224409,0.0326130885123522,0.0136214509494982,-0.0243031842144947,0.0519953497462723,-0.0033717619323493,-0.0162305249196515,-0.0191558342617536,-0.00500456204198518,0.0198511723280666,-0.00723431605478667,0.0657550422744693,0.00604210224103433,0.00278061938216266,-0.0140454999897447,0.00563884765432783,0.0302802895229037,0.011429100775786,0.0236991171268876,0.0137999434758464
183,-0.0059453869382524,0.00743263697865216,-0.0246537435369484,-0.01637419303743,0.0349209869440926,-0.00822335877816167,-0.00182489898116142,0.0223545052186884,0.0128844840849872,0.0687629237258381,0.0785200830828948,0.0346117306894426,0.0122096968723946,-0.0256758048807635,0.0496989261613046,-0.00401400043843409,-0.0174378562877398,-0.0189046270468072,-0.00538231074060123,0.0192082890247233,-0.008057346347236,0.0638999300254435,0.00590092119109873,0.00261360298270246,-0.0144119012969055,0.00557860947901144,0.0300406032851353,0.011473919808733,0.0233600766523442,0.0140189509946623
184,-0.00676425509264602,0.00503847408951184,-0.0255163879644881,-0.0173639290915773,0.0335501714191036,-0.00682820604749323,-0.00372531360242953,0.0213692862284654,0.0108818625338868,0.0684849088152895,0.0809515393630426,0.0366043393926022,0.0107792338741375,-0.0270488542896725,0.0473513279470454,-0.00467515011288169,-0.0185790667029785,-0.0186673544585751,-0.00576177646036231,0.0185579676558541,-0.00883161540788199,0.0619640481752747,0.00572998719957697,0.00245872136475848,-0.0147620240561042,0.00552065600461936,0.0297888900565514,0.0114893469196515,0.0229725275540181,0.0142068180591596
185,-0.00759136558070839,0.00263302687214106,-0.0263681574201262,-0.0183231339995078,0.0321341060216717,-0.00536762703574087,-0.00564712085486531,0.0204057044366797,0.00890332285987976,0.0681495792164903,0.083442955333048,0.0385874718429385,0.00933450803460115,-0.0284114720659818,0.0449632321984602,-0.00535308475051446,-0.0196543975447138,-0.0184459461951781,-0.00614247527039661,0.0179015169273712,-0.00955960502694922,0.0599516605890046,0.00552922626765558,0.0023162939505895,-0.015097649672842,0.00546213229273421,0.0295253720909687,0.0114754825871356,0.0225386206670428,0.0143629821076641
186,-0.00842643172899661,0.000223356668093974,-0.0272068101896759,-0.0192496145192764,0.0306770992533328,-0.00385197670980344,-0.007586320663081,0.0194653653952205,0.00695472239400069,0.0677544961445819,0.0859964775124959,0.0405587737103466,0.00788007499283818,-0.0297522154617152,0.0425456234747312,-0.00604545548665386,-0.0206644281681882,-0.0182420137742727,-0.00652385518861549,0.0172403557814261,-0.0102442659780236,0.0578670840937027,0.0052986825342682,0.0021864816159374,-0.0154205244705384,0.00540015673472443,0.0292501992944252,0.0114324379184485,0.0220605165696113,0.0144870934784833
187,-0.00926912279661779,-0.00218323013252424,-0.028030068745202,-0.0201413384772312,0.0291837157094145,-0.0022919109974716,-0.00953875023881891,0.0185498585425431,0.00504165384368794,0.0672971205869864,0.088614888513414,0.0425170842661556,0.0064205648547747,-0.0310591485775975,0.0401096903416031,-0.00674971821585683,-0.0216100602473226,-0.0180568689311823,-0.00690530839410806,0.0165760008043544,-0.0108889544577729,0.0557146997684952,0.00503853558300368,0.00206928032004898,-0.0157323432133197,0.00533186442375341,0.028963459300505,0.0113603331803905,0.0215403577359074,0.0145790099475497
188,-0.0101190600973533,-0.00457922850800256,-0.028835647955347,-0.0209964546274835,0.0276587354394262,-0.000698264846601168,-0.0115000871492502,0.0176607698766593,0.0031694074012192,0.0667748530020833,0.0913017157226416,0.0444625266710604,0.0049606463966033,-0.032319938669614,0.0376667194251229,-0.0074631647644964,-0.0224924987546016,-0.017891545789933,-0.0072861842156003,0.0159100520160434,-0.0114973634205932,0.0534989670857663,0.00474911633052605,0.00196451723088376,-0.0160347345174994,0.00525445067001665,0.0286651901193475,0.0112592978751787,0.0209802439665026,0.014638788241485
189,-0.0109758128246612,-0.00695698889372488,-0.0296212843000642,-0.0218133110713161,0.0261071084310045,0.000918069261429857,-0.013465858899398,0.0167996894624357,0.00134293269261503,0.0661850810253049,0.0940613401448912,0.0463965814077262,0.00350499100233008,-0.033521958596096,0.0352279881780849,-0.00818295730695217,-0.0233132299846597,-0.0177468260690522,-0.00766580260594128,0.0152441773589704,-0.012073450124483,0.0512244400686177,0.00443092095058943,0.00187184940640408,-0.0163292482218567,0.00516521387444663,0.0283553949987499,0.0111294723038415,0.0203822114663916,0.0146666727789085
190,-0.0118388937144315,-0.00930877800672176,-0.030384765452485,-0.0225904717716645,0.0245339050119784,0.00254626035235963,-0.0154314589053611,0.0159682134615494,-0.000433198837647125,0.0655252343221577,0.096899103382032,0.0483221411135828,0.00205823677829592,-0.0346523943809785,0.0328046576066684,-0.00890616544221943,-0.024073997087089,-0.0176232665533837,-0.00804346779621753,0.0145800962095064,-0.0126213612312477,0.0488957845588226,0.00408462232790424,0.00179076505009487,-0.016617344748169,0.0050615969881884,0.0280340590854236,0.0109710105305625,0.0197482158609003,0.0146630819345446
191,-0.0127077546914777,-0.0116268452787217,-0.031123959600506,-0.023326730750885,0.022944263074104,0.00417565363755271,-0.017392168515132,0.0151679405734759,-0.0021548304433718,0.0647928454819735,0.0998214106125874,0.0502435453570014,0.000624953283850168,-0.0356983568056242,0.0304076662366076,-0.00962980529036783,-0.0247767736158517,-0.0175212280483305,-0.00841848181368063,0.0139195622289614,-0.0131453568054264,0.0465177956449532,0.00371107859126509,0.0017205873184503,-0.0169003864469776,0.00494122681323071,0.0277011674326988,0.010784084634881,0.0190801193555439,0.0146285921571255
192,-0.0135817826544152,-0.0139034936113212,-0.0318368439059971,-0.024021123624718,0.0213433331076758,0.00579587902800181,-0.0193431845319334,0.0144004629731413,-0.00381825477680082,0.0639856156249288,0.102835827364572,0.05216659422573,-0.000790392693877909,-0.0366469958947452,0.0280476266107975,-0.0103508799267136,-0.0254237356265347,-0.0174409050337634,-0.00879015754597319,0.0132643458585506,-0.0136497345333339,0.0440954142835316,0.003311338344052,0.00166048062080383,-0.017179630889386,0.00480195044274665,0.0273567238681269,0.0105688901148191,0.018379682158907,0.0145639203033436
193,-0.0144602955590846,-0.0161311530449022,-0.0325215315386201,-0.0246729361987765,0.0197362220963297,0.00739695183225185,-0.0212796515176906,0.0136673520197093,-0.00542024601225915,0.0631014832061667,0.105951167848771,0.0540985399552206,-0.00218346991101329,-0.0374856171302913,0.0257347255989021,-0.0110664204453224,-0.0260172328584251,-0.017382355251165,-0.00915783104075776,0.0126162167427812,-0.0141387554380937,0.0416337421575184,0.00288664229074444,0.00160945931794837,-0.0174562260340254,0.00464186819656316,0.0270007702106637,0.0103256522830699,0.0176485581992778,0.0144699045761479
194,-0.0153425389622237,-0.0183024558516103,-0.033176296772043,-0.0252817099327953,0.0181279373554166,0.00896936417165972,-0.0231966980059232,0.0129701391863678,-0.00695808860609587,0.0621386943513902,0.109177572639893,0.056048056209818,-0.00355011359695162,-0.0382017982090595,0.0234786297610686,-0.0117735269317033,-0.0265597595267072,-0.0173455284891576,-0.00952087274511214,0.0119769263418013,-0.0146165723007275,0.0391380538557724,0.00243842104843657,0.00156639869552784,-0.0177312071695434,0.00445936247605442,0.0266334053124592,0.0100546334806532,0.0168882950776478,0.0143474844762778
195,-0.0162276831839923,-0.0204103115246219,-0.0337995976905245,-0.025847244158967,0.0165233314061197,0.0105041658610505,-0.0250894756365142,0.0123102928179736,-0.00842960189431667,0.0610958729531037,0.112526573558477,0.0580251850336259,-0.00488635418418486,-0.0387835051534745,0.0212883969411094,-0.01246940862643,-0.0270539252224381,-0.0173302938788881,-0.00987869741285833,0.0113481909669638,-0.0150871619137896,0.0366138055231341,0.00196828903024162,0.00153004806088758,-0.0180054955076573,0.0042531220418368,0.026254803394908,0.0097561409182346,0.0161003381132645,0.0141976801906393
196,-0.017114821239771,-0.0224479801423566,-0.0343900961210564,-0.0263695950208286,0.0149270489624558,0.0119930337410042,-0.0269532001407356,0.0116891914568968,-0.00983315973504849,0.0599720886989721,0.116011143713872,0.0600412619010008,-0.0061884435101705,-0.0392192065891607,0.0191723951706453,-0.0131514225761746,-0.0275024263765305,-0.0173364650710242,-0.0102307724397851,0.0107316754468035,-0.0155542621953454,0.034066639221995,0.00147803439040943,0.00149904578741735,-0.0182798982805651,0.00402216130514192,0.0258652311529837,0.00943053494483923,0.0152860382545113,0.0140215718493363
197,-0.0180029676782898,-0.024409142636773,-0.0349466744781217,-0.0268490711755933,0.0133434770707539,0.0134283287024594,-0.0287831930541386,0.0111080945823691,-0.0111677044271164,0.0587669211950492,0.119645730813482,0.0621088197092648,-0.00745287819860847,-0.0394979850167192,0.0171382298477701,-0.0138171100956383,-0.0279080186915794,-0.0173638227391175,-0.0105766244255625,0.0101289776037811,-0.0160213150798988,0.0315023823609101,0.000969605126203317,0.00147193610776547,-0.0185551101798972,0.00376583431793031,0.0254650631169616,0.00907823753699847,0.0144466635486076,0.0138202790841154
198,-0.0188910584448356,-0.0262879665867987,-0.0354684492824113,-0.0272862263732894,0.0117766993820038,0.014803139907402,-0.0305749230176547,0.0105681116809712,-0.0124327541796165,0.0574805183868327,0.123446272021419,0.064241472958727,-0.00867641996682738,-0.0396096439282753,0.0151926800160999,-0.0144642304025953,-0.0282734908853809,-0.0174121339381956,-0.010915843805851,0.00954161369600196,-0.0164914159816315,0.0289270416819781,0.000445091536085402,0.00144718743605953,-0.0188317159628042,0.00348384324600021,0.0250547947876921,0.00869974079828752,0.0135834137894705,0.0135949413138913
199,-0.0197779518655923,-0.0280791662863603,-0.0359547811894413,-0.0276818490889159,0.010230455457061,0.0161113159737509,-0.0323240455432282,0.0100701706031679,-0.0136284034711869,0.0561136475689439,0.127430188856928,0.066453783748514,-0.00985611265022292,-0.0395448096520303,0.0133416444172772,-0.0150907908382642,-0.0286016400259818,-0.017481167940672,-0.0112480874473641,0.00897100495278271,-0.0169672704962203,0.0263467914535115,-9.32946657093201E-05,0.00142321197906267,-0.0191101940443962,0.00317624121187323,0.0246350531018397,0.00829561525935961,0.0126974378950908,0.0133466991672144
200,-0.0206624308229479,-0.0297780559946524,-0.0364052814369929,-0.0280369494379123,0.00870810590358982,0.0173474831515094,-0.034026440168389,0.00961498616294253,-0.0147553157219488,0.0546677374074519,0.131616360857182,0.0687611115731334,-0.0109892957842955,-0.0392950268506669,0.0115900978266462,-0.0156950731459689,-0.0288952486735417,-0.0175707082717626,-0.0115730791510753,0.00841846530835167,-0.0174511588724432,0.0237679556838812,-0.000643244185015324,0.00139838637699411,-0.0193909208945371,0.00284342949841641,0.0242066038375554,0.00786651777149851,0.011789853505108,0.0130766774265678
201,-0.0215432061630023,-0.0313805954564328,-0.0368198146899406,-0.0283527436499618,0.00721260402294051,0.0185070507651864,-0.035678244002156,0.00920302990697015,-0.0158147078052711,0.0531449095744807,0.136025076989645,0.0711794492274762,-0.0120736146396555,-0.0388528466524468,0.00994205801216828,-0.016275655351777,-0.0291570639821289,-0.0176805607711537,-0.0118906080628892,0.00788519041404072,-0.0179449086453944,0.0211969843508853,-0.00120237645855006,0.00137107309689941,-0.0196741760606562,0.002486149208266,0.0237703556384925,0.00741319879193237,0.0108617682373556,0.0127859698450237
