,0,1,2,3,4,5,6,7,8,9,10,11,12,13,14,15,16,17,18,19,20,21,22,23,24,25,26,27,28,29
0,0.000247875480709988,0.0474041792252651,-0.0154139779718845,-0.00253974770304495,-0.00849586240716594,-0.0164685291657365,-0.0286868331727375,-0.017898183324409,-0.0113718912864408,-0.0328762852440544,-0.0207308837903673,0.0497095901561366,0.0099955513064109,0.0442134816926267,0.0477224106178328,0.0450965219703516,0.0338134474285152,0.00180151675517353,-0.000244616467907692,-0.0096136667411858,-0.0191271447397805,-0.0328414474077279,-0.00623706407090052,-0.0140106224838359,0.0254451842647169,0.0351412893739181,0.0112963905802688,-0.00350836578074677,-0.0259314093357767,-0.000754008375009792
1,0.000687408301507004,0.0461135550292406,-0.016429848041019,-0.00234191552520779,-0.0065810831500899,-0.0178219119258335,-0.0277928318519223,-0.0169817986013832,-0.0102856182383578,-0.0335547124543082,-0.0200560503082081,0.0519805772675384,0.00938446634168707,0.0436710727862234,0.0502921203981213,0.0448600063306857,0.0310546529188582,-0.00115416446838745,-0.00178294648270638,-0.00997393591669441,-0.0175273602850153,-0.033965205776537,-0.00954768500438686,-0.0153722595014143,0.0261536432475041,0.0338071428412618,0.00958812944322461,-0.00322467846338723,-0.0265020019415002,-0.00221063532804163
2,0.00114064884294791,0.0447311360598571,-0.0174463989682719,-0.00216381115600845,-0.00465448898613983,-0.0191746724775315,-0.0269026928581806,-0.0159996387680862,-0.00913261313967055,-0.0342472613932585,-0.0193431925488225,0.0542961872323913,0.00883325914942783,0.0430795604295628,0.0528945476703875,0.0446164633648563,0.0282843926878121,-0.00413833109720747,-0.00330584876738971,-0.0103255623797094,-0.0159799211299632,-0.0351174712014696,-0.012830573499819,-0.0167303734141856,0.0268274638880882,0.032437524932843,0.0078870338006264,-0.00297659468768622,-0.0270740785187979,-0.00368069603965491
3,0.00160638936305778,0.0432544628323079,-0.0184597633220533,-0.0020081158771883,-0.00272352771816513,-0.0205210383123953,-0.0260210399059152,-0.0149472656579691,-0.00791141154765548,-0.0349465206437042,-0.0185900939367507,0.0566505197960302,0.00834817411562358,0.0424360793654399,0.0555201767444508,0.0443645840962698,0.0255183011215043,-0.00714028750459304,-0.00480573594053403,-0.0106678313294205,-0.0144920910553034,-0.0362924101218992,-0.0160678077321566,-0.0180786563865266,0.0274578433057887,0.031035774497078,0.00619915347448108,-0.00276768947215718,-0.0276455260204153,-0.00516062532274905
4,0.00208318356934741,0.0416813507061181,-0.0194660936439821,-0.00187718820093655,-0.000795448219555672,-0.0218552783129103,-0.0251523777245565,-0.0138204806142763,-0.00662113296172133,-0.0356444800647171,-0.0177948420295491,0.0590372743368192,0.00793487323404782,0.0417381349341372,0.0581593465872997,0.0441028336903105,0.0227723457213851,-0.0101490301999261,-0.00627515583056099,-0.011000380610543,-0.0130703246384926,-0.0374836947963474,-0.0192417285748084,-0.0194108218648478,0.0280363440881537,0.0296055952923101,0.00453008492153287,-0.00260125427341064,-0.0282141732416543,-0.00664676153595251
5,0.0025693438254696,0.040009944348065,-0.0204615947055722,-0.00177300410226809,0.00112277183724783,-0.0231717520019893,-0.0243010369681431,-0.0126154068363928,-0.00526155335032191,-0.0363325848840386,-0.0169558980373869,0.0614497474966012,0.00759833814368154,0.0409836607101745,0.0608023097102378,0.0438294497438487,0.0200626876914584,-0.0131533195428569,-0.0077068636153801,-0.0113232172519751,-0.0117201782074046,-0.0386845353731439,-0.0223351171710177,-0.0207206496072189,0.0285550223745334,0.0281510539434629,0.00288489839184364,-0.00248024934477086,-0.0287777992730528,-0.0081353478969102
6,0.00306294289195022,0.0382387759108394,-0.0214425560950442,-0.00169710069205508,0.00302448941247049,-0.0244649580043281,-0.0234711215840897,-0.011328571020092,-0.00383317106239744,-0.0370017975807114,-0.0160721639039572,0.063880832389343,0.0073427770444367,0.0401710699706458,0.0634392857393341,0.043542443752573,0.0174055391705597,-0.0161417570009043,-0.00909389215812205,-0.0116367259146886,-0.0104462337730909,-0.0398877181918237,-0.0253313671902919,-0.0220020280769107,0.0290065489237811,0.0266765733078311,0.00126807383787387,-0.00240725884475502,-0.0293341427988191,-0.00962253370382086
7,0.00356182054458371,0.0363668260656538,-0.0224053848879604,-0.00165052437983406,0.00490344936216629,-0.0257295812039706,-0.0226664594729869,-0.00995698277192406,-0.00233726438038529,-0.0376426671124915,-0.0151430455154982,0.0663230199725222,0.00717153804899503,0.0392992997003719,0.0660605089528702,0.0432396059428185,0.0148170186292867,-0.0191028676654208,-0.0104296196363076,-0.0119416686985427,-0.00925203747255929,-0.0410856502980256,-0.0282146494341113,-0.0232489936959074,0.0293843209250001,0.0251869207847771,-0.000316553193733439,-0.00238444944566388,-0.0298809122837166,-0.0111043757439661
8,0.00406359531981981,0.0343935868340586,-0.023346638119086,-0.00163378452239986,0.00675382648052186,-0.0269605380543452,-0.0218905571894076,-0.00849821028471794,-0.000775939099789958,-0.0382454049789195,-0.0141685106401492,0.068768403139223,0.00708703052617668,0.0383678459977733,0.0686562693168378,0.0429185136194728,0.0123130059596345,-0.0220251875577504,-0.011707833576874,-0.0122391759634772,-0.00814005383251413,-0.0422704100694637,-0.030970066550411,-0.0244557665327135,0.0296825625345253,0.0236871911667097,-0.00186583461186463,-0.00241353318908521,-0.0304157970550622,-0.0125768401482704
9,0.00456568152796285,0.0323191249800726,-0.0242630547371722,-0.00164681348102731,0.00857025557420061,-0.0281530194734964,-0.0211465593391205,-0.0069504507991484,0.000847835310258547,-0.038799967549242,-0.0131491402640527,0.0712086840472044,0.00709065596266909,0.0373767899380201,0.0712169468119079,0.0425765431432681,0.00990899878105335,-0.0248973550630189,-0.0129227904385578,-0.0125307280414011,-0.00711163691286486,-0.0434338037577908,-0.0335837957449497,-0.0256167820846336,0.0298964123955289,0.022182783708416,-0.00337734087966516,-0.0024957353169129,-0.0309364792447479,-0.0140358049204253
10,0.00506531155259312,0.0301441445533042,-0.0251515866914463,-0.00168893391800304,0.0103478491443071,-0.0293025307434635,-0.0204372132252882,-0.0053125944439478,0.00253020220579855,-0.0392961440231308,-0.0120861720826203,0.0736351851496553,0.00718274981191184,0.0363268131713474,0.0737330391109716,0.0422108856098461,0.00761997146907747,-0.0277082056330541,-0.0140692699255165,-0.0128181279442509,-0.00616701910817555,-0.0445674276544359,-0.0360432175401103,-0.0267267189061943,0.0300219967090637,0.0206793731889548,-0.0048493794775479,-0.00263176777096798,-0.0314406465105489,-0.0154770633296701
11,0.00555956331973027,0.0278700470237165,-0.0260094287701102,-0.00175883405369189,0.0120822025802797,-0.0304049278335833,-0.0197648391893105,-0.00358428014292655,0.00426640793211287,-0.0397236493302181,-0.0109815350238503,0.0760388643354533,0.00736253570896023,0.0352192027784037,0.0761951829237026,0.0418185662599354,0.00546023838012758,-0.0304468687118357,-0.0151426232701895,-0.0131034654047657,-0.00530531808061669,-0.0456627354914177,-0.0383370288281265,-0.0277805219310478,0.0300564867661225,0.0191828748546657,-0.00628100027369407,-0.00282180899974031,-0.0319260054088693,-0.0168963283103022
12,0.00604539267606709,0.025498987327697,-0.0268340467884837,-0.001854551480962,0.0137693870937654,-0.0314564495864949,-0.0191313069846331,-0.0017659423990123,0.00605080640252374,-0.0400722212109525,-0.00983787382319109,0.0784103345276697,0.00762809330694168,0.0340558451644526,0.0785941695634997,0.0413964676053359,0.00344332269688177,-0.0331028656649902,-0.0161388147876548,-0.0133890728134481,-0.00452456197459398,-0.0467111105933677,-0.0404553386956319,-0.0287734214338426,0.0299981402079853,0.0176994032619664,-0.00767198758804171,-0.00306549063642299,-0.032390295245396,-0.0182892379612589
13,0.00651967026709539,0.0230339240631103,-0.0276232037090653,-0.00197346599753216,0.0154059309293307,-0.0324537452444399,-0.0185380184171134,0.000141152087400234,0.00787687856982731,-0.0403317206554966,-0.0086585628325399,0.0807398880294546,0.00797634083431835,0.0328392090428199,0.0809209555048701,0.0409413562095833,0.00158183225248916,-0.0356662073463971,-0.017054456077428,-0.013677473832125,-0.00382173272660766,-0.047703942205746,-0.0423897457578479,-0.0297009476809493,0.0298463256452776,0.0162352251813894,-0.00902283898740244,-0.00336189151856593,-0.0328313021890102,-0.0196513621889825
14,0.00697922235935962,0.0204786620381696,-0.0283749832694502,-0.00211230177248657,0.0169887896744832,-0.0333938968517134,-0.0179858963856723,0.00213487883837967,0.00973726698827631,-0.0404922348088833,-0.00744770842459926,0.0830175258467424,0.00840303328385597,0.0315723178273004,0.0831666688804109,0.0404499130153934,-0.000112656389311315,-0.0381274898162603,-0.0178868323324487,-0.0139713256658247,-0.00319282693962384,-0.0486327053363728,-0.0441333960300255,-0.0305589414242112,0.0296015306234524,0.0147967068749895,-0.0103347311038525,-0.00370953940750712,-0.0332468734007211,-0.0209782104900859
15,0.00742087491297266,0.0178378854040415,-0.0290878106985383,-0.00226713901518191,0.018515306747879,-0.034274436144798,-0.0174753803633568,0.00421224173933299,0.0116238253811508,-0.0405441813794397,-0.00621013954223058,0.0852329921572227,0.00890277692626054,0.0302587120150559,0.0853226130121588,0.0399187670630628,-0.00162970441389926,-0.0404779866419064,-0.018633920310659,-0.0142733561549563,-0.00263293344497845,-0.0494890433621988,-0.0456810206752799,-0.0313435604986674,0.0292653532628634,0.0133902562119988,-0.0116094730202346,-0.00410642063724523,-0.033634930905631,-0.0222652408312553
16,0.00784150008687779,0.0151171796902547,-0.0297604701181497,-0.00243343516759328,0.0199831653678439,-0.0350933556318641,-0.0170064282722784,0.00636937137839345,0.0135276828478565,-0.0404784135142385,-0.00495138613502409,0.0873758140342817,0.00946906059701592,0.0289024023876703,0.0873802681788494,0.0393445323942166,-0.00296010671123922,-0.0427097361708371,-0.0192943976341178,-0.0145862970038905,-0.00213632633280863,-0.0502648525701935,-0.047028953294237,-0.0320512828905767,0.0288404782149739,0.0120222602364207,-0.0128494480103035,-0.00454999778041618,-0.0339934849232882,-0.0235078695564463
17,0.00823806425488101,0.0123230412178644,-0.0303921182565973,-0.00260605549900628,0.0213903334911937,-0.0358491136647809,-0.0165785246264784,0.00860153584713807,0.0154393220688484,-0.0402863240317003,-0.00367764541748529,0.0894353464726544,0.010094303938051,0.0275078150808543,0.0893312928852267,0.0387238478825209,-0.00409597632691248,-0.0448156221703316,-0.0198676432050764,-0.014912814585207,-0.00169657190170306,-0.0509523677207573,-0.0481751267542386,-0.0326789067418021,0.028330637853672,0.0106990189399035,-0.014057544652054,-0.00503723526720304,-0.0343206463702991,-0.0247014822389623
18,0.00860767652850264,0.00946287258676987,-0.0309822941424914,-0.00277931284815715,0.0227350033635966,-0.0365406334165817,-0.0161906947448637,0.0109031640464155,0.0173486705995587,-0.0399599478301274,-0.0023957360722437,0.0914008226986659,0.0107699224915838,0.026079729766341,0.0911675259188641,0.0380534196759746,-0.0050308165335879,-0.0467894462828393,-0.0203537286672515,-0.01525543984681,-0.00130664766884889,-0.0515442476457128,-0.0491190498851389,-0.0332235478457154,0.0277405598554622,0.00942667611973987,-0.0152370785467141,-0.00556463273574358,-0.0346146382579652,-0.0258414453998671
19,0.00894763672526938,0.00654496321567398,-0.031530924499664,-0.00294701613441834,0.0240155274366965,-0.0371672957927083,-0.0158415247723913,0.0132678813219926,0.0192452040887845,-0.0394920612256303,-0.00111304070661816,0.0932614096813182,0.0114864092481766,0.0246232123478757,0.0928809904518456,0.0373300658732994,-0.00575957975315094,-0.0486259908525274,-0.0207534009911225,-0.0156164988983293,-0.000959071303965766,-0.0520336598232844,-0.049861764686512,-0.0336826352633921,0.0270759025107676,0.00821114831255765,-0.0163917060685615,-0.00612826573469957,-0.034873805725772,-0.0269231190335162
20,0.00925548168949623,0.00357845424767356,-0.0320383246255138,-0.00310252714691145,0.0252303524835483,-0.0377289264225869,-0.0155291871922282,0.015688557038294,0.0211180600158162,-0.0388762769180328,0.000162562947798654,0.0950062686901274,0.0122334319521214,0.023143543693686,0.0944639013686481,0.0365507629897215,-0.00627871266593054,-0.0503210708332381,-0.0210680564204492,-0.0159980458615116,-0.000646037114560237,-0.0524143628126814,-0.0504057849901944,-0.0340539057426953,0.0263431792502091,0.00705805288747275,-0.0175253317379874,-0.00672383324490961,-0.0350966244778871,-0.0279418699129452
21,0.00952902886794369,0.000573287510266831,-0.0325051946028155,-0.00323882501766215,0.026377953782477,-0.038225776996313,-0.0152514714650934,0.018157363486063,0.0229561603174566,-0.0381071332437188,0.00142278142422004,0.0966246206707127,0.0129999451726535,0.021646146008692,0.0959086768793134,0.0357126936962605,-0.00658618695233805,-0.0518715736858674,-0.0212997061785019,-0.016401799536018,-0.000359557526071382,-0.0526807853842479,-0.050755017797007,-0.0343353976533905,0.0255496739669143,0.0059726364567808,-0.0186420109479969,-0.00734671134197693,-0.0352817074241462,-0.0288930856883196
22,0.0097664160659995,-0.00245986137778305,-0.0329326107665893,-0.00334857769035662,0.0274567712403417,-0.0386585013264267,-0.0150058193942063,0.0206658453120712,0.0247483410746356,-0.0371801763548359,0.002658994653761,0.0981058161291822,0.0137743158666904,0.0201365084902067,0.0972079553123522,0.0348132952439556,-0.00668151522629394,-0.0532754864051401,-0.0214509344916616,-0.016829085358229,-9.16068753832504E-05,-0.0528281011507887,-0.0509146687534109,-0.0345254451560141,0.0247033487727582,0.00495970481597166,-0.0197458498787394,-0.00799201218944584,-0.0354278093696682,-0.0297721898361811
23,0.00996613636206215,-0.00550966524394163,-0.0333220124206002,-0.00342421960790293,0.0284651492896606,-0.0390281266238745,-0.0147893647840345,0.0232049984571559,0.0264834872518149,-0.0360920339694211,0.00386235382483689,0.0994394091312497,0.0145444608942247,0.0186201139104556,0.0983546177805533,0.0338503079139024,-0.00656575184194405,-0.0545319090718209,-0.0215248496400656,-0.0172807840189364,0.000165735226048076,-0.0528522974945474,-0.0508911334504382,-0.0346226732992041,0.0238127458473715,0.00402355565564798,-0.0208409045022681,-0.00865464743685445,-0.0355338296485587,-0.0305746575615516
24,0.0101270672388387,-0.00856424202198595,-0.0336751838703451,-0.00345803475819284,0.029401282320707,-0.0393360205772794,-0.0145989769360933,0.0257653573951057,0.028150670333573,-0.0348404793709409,0.00502388678378832,0.100615234932232,0.0152979947062873,0.0171023677272527,0.0993418171822701,0.0328218227698876,-0.00624147838814657,-0.0556410545964068,-0.0215250288849749,-0.0177572879600309,0.000420143701457676,-0.0527502375952949,-0.0506918764124987,-0.0346259946892392,0.0228868850272462,0.0031679152929455,-0.0219310806079457,-0.00932939500211275,-0.0355988126566369,-0.031296032795132
25,0.0102484930995656,-0.0116112645191385,-0.033994231909162,-0.00344224413741173,0.0302631673005258,-0.0395838549127241,-0.0144313075024512,0.0283370892831858,0.0297392865842007,-0.0334244844016193,0.00613460963355123,0.101623490660843,0.0160223852114812,0.0155885312398467,0.100163013749072,0.0317263279373454,-0.00571277383125881,-0.0566042345951475,-0.0214554582457485,-0.0182584667952758,0.000678913667892331,-0.0525197144009658,-0.0503252997975908,-0.0345346082976965,0.0219351587404557,0.00239588064640444,-0.0230200367663141,-0.0100109681465006,-0.0356219463036533,-0.0319319464602107
26,0.0103301204728316,-0.0146380816145025,-0.0342815589599589,-0.00336909661425203,0.0310485650874933,-0.0397735661847551,-0.0142828401942883,0.0309100934712271,0.0312391935706766,-0.0318442602936327,0.00718564304240979,0.102454818385119,0.0167051156437268,0.0140836601800732,0.100812017086618,0.0305627525944409,-0.00498516942700355,-0.0574238316110195,-0.02132046820107,-0.0187836425014437,0.000948834498160282,-0.0521594954460277,-0.0498006039536942,-0.0343480008708079,0.0209672258217499,0.00170986762377149,-0.0241110920958088,-0.0106940857052539,-0.0356025584733235,-0.0324781362050584
27,0.0103720853688134,-0.0176318488981213,-0.0345398321361106,-0.00323096210778912,0.0317549717748897,-0.0399073146060508,-0.0141499428163815,0.0334741046776003,0.0326408425404937,-0.0301012853161728,0.0081683316474195,0.103100389795501,0.0173338501038928,0.01259254996075,0.101283034388143,0.0293305078415246,-0.00406558869637575,-0.0581032581543883,-0.02112466646512,-0.0193315750093711,0.00123607465817235,-0.0516693575163604,-0.049127642069487,-0.0340659512805838,0.0199929056449867,0.00111156700618674,-0.0252071406038487,-0.0113735423179015,-0.0355401116449494,-0.0329304678035159
28,0.0103749524286597,-0.0205796664988957,-0.0347719485409821,-0.00302042592872055,0.0323796011930281,-0.0399874417615838,-0.0140289210672344,0.0360187980351913,0.0339354042374105,-0.0281983183832279,0.00907436483060918,0.103551991651072,0.0178966003340192,0.0111196885971857,0.101570724238055,0.0280295236160129,-0.00296227294695769,-0.058646903284532,-0.0208728690362089,-0.0199004585961124,0.00154607946095942,-0.0510501102835384,-0.0483167712214971,-0.0336885380169527,0.019022073888556,0.000601908795695774,-0.0263105737442118,-0.0120442775093533,-0.0354341958888884,-0.0332849584167224
29,0.0103397057032576,-0.0234687216479548,-0.0349809971765236,-0.00273038308073889,0.0329193794705133,-0.040016428072525,-0.0139160735083155,0.0385338941462157,0.0351148857742246,-0.0261393979638408,0.00989589706367761,0.103802111052727,0.0183818912071142,0.00966921807963772,0.101670255175586,0.0266602808416116,-0.00168469301673565,-0.059060067678443,-0.0205700307308527,-0.0204879292459065,0.00188348360251296,-0.0503036081847681,-0.0473787021541443,-0.0332161498662419,0.0180645611103325,0.000181035848878056,-0.0274232126697968,-0.0127014425031468,-0.0352845204964403,-0.0335378018808521
30,0.010267731103034,-0.0262864333854598,-0.0351702178780261,-0.00235413127865226,0.0333709523055541,-0.0399968508759178,-0.0138077470651733,0.0410092622669333,0.0361722362655435,-0.0239298258590177,0.010625665961096,0.103844019534248,0.0187789223798012,0.00824490471269224,0.101577367963691,0.0252238380432073,-0.000243448118713135,-0.0593488883323342,-0.0202211764000121,-0.0210910829157528,0.00225204003058053,-0.0494327500039707,-0.0463243501327734,-0.0326494996588347,0.0171300551589326,-0.000151712548120305,-0.0285462514679967,-0.0133404636996639,-0.035090904541491,-0.0336853961386413
31,0.0101607907715842,-0.0290205967457253,-0.0353429577351999,-0.0018854614148606,0.0337307053327352,-0.0399313439695002,-0.0137003923796708,0.0434350197747586,0.0371014390578866,-0.0215761356515481,0.0112571061541334,0.103671854901037,0.0190777235605211,0.00685011866152716,0.101288440313748,0.0237218517202763,0.00134984713335045,-0.0595202542100168,-0.0198313339777713,-0.0217065044173876,0.00265456635360278,-0.0484414658096111,-0.045164689180861,-0.0319896408028332,0.0162280082950582,-0.000397806693532886,-0.0296802124493536,-0.0139571018221538,-0.0348532666967806,-0.0337243728668341
32,0.0100209898469594,-0.0316595237498905,-0.0355026254999132,-0.00131874419786478,0.0339947976941724,-0.0398225594386102,-0.013590618288761,0.0458016261505073,0.0378975885810627,-0.0190860458900393,0.0117844571005351,0.103280699699096,0.0192693008928597,0.00548782266548476,0.100800552657707,0.0221565898505057,0.00308268624035735,-0.0595817142880338,-0.019405470439264,-0.0223303064167705,0.00309290963183455,-0.0473346911198564,-0.0439106119487509,-0.031237986156628,0.0153675497467679,-0.000559521801532117,-0.0308249143232546,-0.0145475058201232,-0.034571614643279,-0.0336516292690624
33,0.00985073627886283,-0.034192178598105,-0.0356526445185428,-0.000649011697118456,0.0341592086411162,-0.0396731325354211,-0.0134752446645033,0.0480999698345202,0.0385569500844849,-0.0164683983295798,0.0122028629771648,0.10266665516615,0.0193457720412296,0.00416056960724291,0.10011155343998,0.020530937989776,0.00494180341030415,-0.0595413795488363,-0.0189484316483367,-0.0229581778588859,0.00356793001548822,-0.0461183283892677,-0.0425727973602492,-0.030396328637403,0.0145574042799685,-0.000639922585180297,-0.0319794538413241,-0.0151082607215181,-0.0342460344185242,-0.0334643619069167
34,0.00965269456084792,-0.0366083045832191,-0.035796404761761,0.000127967441111984,0.0342197967068387,-0.0394856503207678,-0.0133513528164958,0.0503214464824349,0.0390770008145431,-0.0137330818120795,0.0125084628664174,0.101826909505481,0.0193004876930115,0.00287050837185402,0.0992201223233586,0.0188483975434185,0.00691331359504249,-0.0594078205403308,-0.0184648869608436,-0.0235854409521705,0.00407950331445091,-0.0447991961374686,-0.0411615880436817,-0.029466862820736,0.013805817232802,-0.000642837230920621,-0.0331422012238355,-0.0156364287405048,-0.0338766800504735,-0.0331601023348615
35,0.00942973440696813,-0.0388985404411691,-0.0359372145560051,0.00101562029121899,0.0341723707076025,-0.0392626247056818,-0.0132163326358665,0.0524580273489066,0.0394564515320564,-0.0108909426235607,0.0126984695420867,0.100759799333966,0.0191281373551689,0.0016193972040608,0.0981258296676324,0.0171130759056643,0.00898285819483675,-0.0591899621536416,-0.0179592793210687,-0.0242071156943864,0.00462654220900635,-0.0433849662635358,-0.0396868793755721,-0.0284522066641122,0.0131204863411979,-0.000572821106724577,-0.0343108094109509,-0.0161295830747062,-0.0334637638186584,-0.0327367541917246
36,0.00918487554605576,-0.0410545241019983,-0.0360782526476689,0.00201651057115334,0.0340127715491661,-0.039006470442949,-0.0130679256532018,0.05450231675999,0.0396952476570624,-0.00795368240839759,0.012771235286946,0.0994648631919373,0.0188248375219167,0.000408623583459454,0.0968291906468573,0.0153296682981929,0.011135754540808,-0.058896977272304,-0.0174357814507532,-0.0248179907906919,0.00520703544817255,-0.0418840903049591,-0.0381580217498819,-0.0273554223891765,0.0125085005735153,-0.000435110738114765,-0.0354822369034524,-0.0165858339622317,-0.0330075474750102,-0.0321926312875553
37,0.00892122991909845,-0.0430689820990501,-0.036222521251699,0.00313228920921147,0.0337369635455653,-0.0387194885178782,-0.0129042631939341,0.056447597891409,0.0397945497532297,-0.00493374494745075,0.012726303332529,0.097942886066354,0.0183882005211634,-0.000760770507547397,0.0953317124224073,0.0135034312827361,0.013357147186176,-0.058538180917027,-0.016898258586505,-0.0254126997052571,0.00581810403772432,-0.0403057156017579,-0.0365837374376129,-0.0261800354879325,0.0119762860956182,-0.000235568763462117,-0.0366527836823998,-0.0170038467122632,-0.0325083347428553,-0.0315264961144657
38,0.00864194264284905,-0.0449358032195971,-0.036372800749004,0.00436365545863293,0.0333411336995283,-0.0384038552718575,-0.0127238988451625,0.0582878663443369,0.0397566935141558,-0.00184419331480873,0.0125644437008625,0.0961959339719119,0.0178173826094545,-0.00188805914344152,0.0936359328846947,0.0116401480740893,0.0156321589934115,-0.0581229264526527,-0.0163502380758647,-0.0259858005004725,0.00645607309882645,-0.0386595925095102,-0.0349720531257933,-0.0249300507800616,0.0115295594045459,1.93792621288531E-05,-0.0378181394305729,-0.0173828515704932,-0.0319664653940339,-0.0307375981081264
39,0.00835013314403576,-0.0466500953248021,-0.0365316066999981,0.00571032932967614,0.032821797155391,-0.0380616174630205,-0.0125258344982558,0.060017851295511,0.0395851298743895,0.00130142088653745,0.0122876724468064,0.0942273777571675,0.0171131101766704,-0.00297280010697018,0.0917454496167642,0.00974608593549012,0.0179460399948718,-0.0576605053403517,-0.0157948859989208,-0.0265318580534498,0.00711655778522239,-0.0369559739646045,-0.0333302489275552,-0.0236099644444307,0.0111732875994492,0.000322815209758864,-0.0389734430283511,-0.0177226454291831,-0.0313823111802384,-0.029825710897116
40,0.00804883787241486,-0.0482082246181016,-0.036701149832851,0.00717103595670341,0.0321759068220581,-0.0376946933275492,-0.0123095393023578,0.0616330242865517,0.0392843463237659,0.00448919434934457,0.0118992535460587,0.0920419054531785,0.0162776832414218,-0.00401480088839405,0.0896649379158634,0.00782794609501988,0.0202843120269094,-0.0571600518111684,-0.0152349908449817,-0.0270455271992717,0.00779456138695942,-0.0352055088365911,-0.031664824342598,-0.0222247709790784,0.0109116557024738,0.000667404751555989,-0.0401133520708952,-0.0180235855374736,-0.0307562738647842,-0.0287911677043369
41,0.00774095596696367,-0.0496078369884563,-0.0368832996429385,0.00874350235016416,0.0314009649819794,-0.0373048795560069,-0.0120749609558959,0.0631295959997568,0.0388597709393175,0.00770501295485068,0.011403682945,0.0896455226572738,0.0153149557642542,-0.00501408423255093,0.0874001569300396,0.00589280677658653,0.0226329071899341,-0.0566304537096363,-0.0146729541459902,-0.0275216353354997,0.0084845835267861,-0.0334191306030033,-0.0299814813265375,-0.0207799641108265,0.0107480408990401,0.0010454785682129,-0.0412321209595673,-0.0182865755071032,-0.0300887855642962,-0.0276348940120246
42,0.00742919917767436,-0.0508478613904739,-0.0370795522033916,0.0104244668030443,0.0304951345588299,-0.0368938639456216,-0.011822528877433,0.0645045016359897,0.0383176610508174,0.0109346946432596,0.0108066545809953,0.08704554063965,0.0142302926759523,-0.00597085433488243,0.0849579432183891,0.00394806008912743,0.0249782982691877,-0.0560802706112232,-0.0141107878530536,-0.0279552630335574,0.00918073617668301,-0.031607942950075,-0.0282851243055076,-0.0192815307774194,0.0106849935353809,0.00144911713224211,-0.0423236859643435,-0.0185130440382476,-0.0293803115652946,-0.026358436572892
43,0.00711604723630013,-0.0519284955415747,-0.0372910027349085,0.0122097010314592,0.0294573476176761,-0.0364632433359513,-0.0115531489345031,0.0657553757568195,0.0376649788122486,0.0141641321116645,0.0101150084914499,0.0842505520691971,0.0130305039088198,-0.00688546465413977,0.0823461913158709,0.00200134365919868,0.0273076193645074,-0.055517660157655,-0.0135501181419365,-0.0283418212397496,0.00987686509083604,-0.0297831039388565,-0.026579876656234,-0.0177359374400762,0.010724224689966,0.00187023777809577,-0.0433817555391653,-0.0187049169066454,-0.0286313557270946,-0.024963987847285
44,0.00680370972474622,-0.052851174513503,-0.0375183234162341,0.014094044932731,0.0282874086222227,-0.0360145462862196,-0.0112681895690407,0.0668805176711176,0.0369092562531752,0.0173794331711077,0.00933666145161863,0.0812703944695364,0.0117237561246684,-0.00775838815075744,0.0795738211650969,6.04680203028052E-05,0.0296087751241672,-0.0549503133827502,-0.0129921952491173,-0.028677123711,0.0105666741706392,-0.027955710382283,-0.024869112868892,-0.0161501081501561,0.0108666001235238,0.00230068276353568,-0.0443999040998365,-0.0188645828541661,-0.0278424685183245,-0.0234544049715427
45,0.00649409531269023,-0.0536185230692796,-0.0377617468357456,0.0160714536443372,0.0269860899785501,-0.0355492598119557,-0.010969459338236,0.067878848630446,0.0360584526247078,0.0205670566204485,0.00848052090829476,0.0781161017278388,0.0103194632474576,-0.00859019058562992,0.0766507325566325,-0.00186665911841123,0.0318705371588369,-0.05438539962178,-0.0124379088727363,-0.028957453416415,0.0112438502479877,-0.026136684057685,-0.0231555053269872,-0.0145313939870787,0.011112140409174,0.00273230704383073,-0.0453716674431696,-0.0189948541089555,-0.0270142576585662,-0.0218332224165638
46,0.00618878903103208,-0.0542342928455863,-0.0380210553908762,0.0181350563858535,0.025555217456599,-0.0350688593703515,-0.0106591760852357,0.0687498622436858,0.0351208070303483,0.0237139415640965,0.00755638330098599,0.0747998441781921,0.0088281573222942,-0.00938150733353378,0.073587746985914,-0.00377211051673594,0.0340826264248196,-0.0538295214136572,-0.0118878086222383,-0.0291796217437902,0.0119021857942224,-0.0243366613341932,-0.0214410843808812,-0.0128875337014471,0.0114600270496119,0.0031570645201784,-0.0462906379943319,-0.0190989223273743,-0.0261474012491004,-0.0201046575773603
47,0.00588903802096818,-0.0547032857033467,-0.0382955768377273,0.0202772263653573,0.0239977432010856,-0.034574841171723,-0.0103399281579768,0.0694935696267225,0.0341046894398498,0.0268076282103353,0.00657481817495032,0.0713348579592583,0.00726134162530168,-0.0101330239868068,0.0703965375814391,-0.00564801769880704,0.0362357806055494,-0.0532886796218826,-0.0113421289654263,-0.0293410194784508,0.0125356971312698,-0.0225658877282816,-0.0197273101638559,-0.0112266056318118,0.0119086144022506,0.00356709158470283,-0.0471505581141897,-0.0191803107976338,-0.0252426631792321,-0.0182736086425335
48,0.00559574595731644,-0.0550312647647734,-0.0385841860807835,0.0224896608335172,0.0223178042224292,-0.0340687558023224,-0.0100146282980975,0.0701104408663037,0.0330184532224814,0.0298363683318263,0.00554703978235979,0.0677353644956559,0.00563132832901329,-0.0108454608546343,0.0670895479810244,-0.00748664861497436,0.0383218057785059,-0.0527682488215287,-0.0108008180997245,-0.0294396586686373,0.0131387358359833,-0.0208341188153345,-0.0180151544051483,-0.00955697120846265,0.0124554472549907,0.00395478686478848,-0.0479454097777471,-0.019242823774079,-0.0243009104907623,-0.0163456442245787
49,0.00530947609772914,-0.0552248548223022,-0.0388853131752888,0.0247634701750781,0.0205207644936778,-0.0335522420751655,-0.00968646101647433,0.0706013443984818,0.0318702923032055,0.032789223743864,0.00448476813065212,0.0640164810696932,0.00395106337334215,-0.0115195613061704,0.0636799012288652,-0.00928048339910962,0.0403336119214623,-0.0522729628295255,-0.0102635701626458,-0.0294742046550684,0.0137060911860095,-0.01915052882185,-0.016305190335732,-0.00788721060451604,0.0130972839227273,0.00431288616744592,-0.0486694990467586,-0.0192904938214024,-0.0233231322780513,-0.0143269843843383
50,0.00503046266559008,-0.0552914339426976,-0.0391969573960459,0.0270892747419311,0.0186132390673033,-0.0330270599839787,-0.00935882444907443,0.070967485882775,0.0306681059400743,0.0356561513531521,0.0034000816643166,0.0601941235337241,0.0022339414913153,-0.0121560837648027,0.0601812999353063,-0.0110222869986699,0.0422652320780304,-0.0518069100972454,-0.0097298601914916,-0.0294439977199076,0.0142330816939638,-0.0175236281023017,-0.0145976886617287,-0.00622605133415229,0.0138301247640386,0.0046345317376245,-0.0493175339024316,-0.0193275280399392,-0.0223104596009944,-0.0122244728519034
51,0.00475863004226239,-0.0552390181973736,-0.0395167071098813,0.0294573079590994,0.016603098959924,-0.0324951216238827,-0.00903526783908888,0.0712103480960255,0.0294193739434602,0.0384280735456132,0.00230526395337182,0.0562849022652444,0.000493614581446361,-0.0127557970377871,0.0566079190828267,-0.0127051775360053,0.0441118252603695,-0.0513735385399666,-0.00919898124123993,-0.029349063999172,0.014715634014868,-0.0159611905670834,-0.0128927174987839,-0.004582290821044,0.014649246043409,0.00491333507018562,-0.0498846941752124,-0.0193582540170761,-0.0212641857996634,-0.0100455404277701
52,0.0044936190313837,-0.0550761415268775,-0.0398417650784895,0.031857524080866,0.0144994559251587,-0.0319585189631926,-0.0087194259126657,0.0713316332787209,0.028131044909272,0.0410969329132752,0.00121264690562292,0.0523060124902615,-0.00125620320342024,-0.0133194785609251,0.052974292973823,-0.0143226893694774,0.0458696634117941,-0.0509756692482637,-0.00867008307039618,-0.0291901154992416,0.0151503477874243,-0.0144701919737158,-0.0111902441196693,-0.00296471415864609,0.0155492390806558,0.00514343265036978,-0.050366692504176,-0.0193870663066091,-0.0201857865286269,-0.00779815973796904
53,0.00423481927012599,-0.0548117327925845,-0.0401689787174597,0.0342797088461417,0.0123126266346703,-0.0314195474046708,-0.00841495150154666,0.0713332092459014,0.0268094397235394,0.0436557305667201,0.000134453118225186,0.048275120099177,-0.00300193017393542,-0.0138479150523831,0.0492951978955458,-0.0158688299571103,0.047536102981392,-0.0506155184118855,-0.00814221180642829,-0.0289685392589483,0.0155345452785568,-0.0130567598233803,-0.00949023636705629,-0.00138200845148235,0.0165240546298779,0.00531953413824192,-0.0507598254735196,-0.0194183741789496,-0.019076938781356,-0.00549079171092727
54,0.00398140670440501,-0.0544549920808008,-0.0404948747494046,0.0367135911875344,0.0100540762033874,-0.0308807241611773,-0.00812544781382094,0.0712170604297546,0.0254601722223238,0.0460985475412932,-0.00091735996505664,0.0442102440563866,-0.00473030812008886,-0.0143419050039912,0.0455855321224988,-0.01733812977878,0.049109541875903,-0.050294726686904,-0.00761435000539543,-0.0286863758999935,0.0158663050358634,-0.0117261354204258,-0.0077927616228782,0.000157324741913036,0.0175670524104432,0.00543696265467996,-0.0510610143021559,-0.0194565513124126,-0.0179395381545018,-0.00313232433725579
55,0.00373238492042054,-0.0540152683024728,-0.040815697617345,0.0391489540940702,0.00773634141476225,-0.0303448005879039,-0.00785440176278522,0.0709852448566111,0.024088088469553,0.0484205490825605,-0.00193125142378174,0.0401296364620145,-0.00642858616270095,-0.0148022623938192,0.0418601948859028,-0.0187256847407568,0.0505893627511446,-0.050014395151507,-0.0070854565250528,-0.0283462880063262,0.0161444791050468,-0.0104826484563534,-0.00609808130263193,0.00164505725119226,0.0186710556697691,0.00549168696593779,-0.0512678346979875,-0.0195058880120837,-0.0167757136102899,-0.000732004461241791
56,0.00348662903609486,-0.053501940074781,-0.0411274509715146,0.0415757427174855,0.00537293441417843,-0.029814767757937,-0.00760511973384698,0.0706398578819771,0.0226972256592639,0.0506179718884593,-0.00289624114303122,0.0360516612631599,-0.00808469410434414,-0.0152298209822549,0.0381339659151806,-0.020027190664426,0.051975863786383,-0.0497751269247448,-0.00655450563752549,-0.0279515189636272,0.0163686937288432,-0.00932970427554501,-0.00440673895407317,0.00307332075639835,0.0198284105923738,0.00548034549704601,-0.0513785357244137,-0.0195705464510551,-0.0155878390331364,0.00170063647106511
57,0.00324293080448391,-0.0529243017791542,-0.0414259415104215,0.0439841678475784,0.00297822803314075,-0.0292938547354843,-0.00738066710191289,0.070183003317609,0.0212907911724115,0.0526880946891718,-0.00380204450035621,0.0319946725347223,-0.00968740215010509,-0.0156254385565758,0.0344213871021533,-0.0212389696448039,0.0532701782500923,-0.0495770734662149,-0.00602052481671578,-0.0275058430690304,0.0165393338007228,-0.00826978377197731,-0.00271964018148863,0.00443469019447804,0.0210310502853011,0.00540026222838023,-0.0513920477562378,-0.0196545193323775,-0.0143785409425892,0.00415586162323974
58,0.00300004356772646,-0.0522914565649389,-0.0417068244460501,0.0463648029609053,0.000567324275465729,-0.0287855191866468,-0.00718381270914616,0.0696167723881613,0.0198711618366845,0.0546291928557101,-0.00463919511364533,0.0279768931597583,-0.0112264641543839,-0.0159900005163895,0.0307366477610633,-0.0223579882492577,0.0544741843138042,-0.049419984533713,-0.00548263064689375,-0.027013507884493,0.016657511692513,-0.00730445565900808,-0.00103812278588813,0.00572226246532937,0.0222705629722083,0.00524945464249322,-0.051307979818841,-0.0197615922719917,-0.0131507018162411,0.0066238117185593
59,0.00275672572438048,-0.0516122179114292,-0.0419656498727412,0.0487086731642059,-0.00184409216715321,-0.0282934301655196,-0.00701697937884006,0.0689432307551084,0.0184399029649151,0.0564404780373687,-0.00539915352506543,0.0240162946418702,-0.0126927419104727,-0.0163244222430197,0.0270934748638051,-0.0233818677074881,0.055590406701051,-0.0493032607509024,-0.0049400623125938,-0.026479169950826,0.0167250214037438,-0.00643440065254096,0.000635984294583609,0.00692972886459785,0.0235382639237192,0.00502663398845886,-0.0511266068023296,-0.0198953101060024,-0.0119074585896311,0.00909459039763827
60,0.00251178143394118,-0.050895021176108,-0.0421979093473606,0.0510073345034203,-0.00423991320440169,-0.0278214431176875,-0.00688220138012887,0.0681644136460615,0.0169978062969602,0.0581220241283798,-0.00607439996710537,0.0201304786848911,-0.0140783084266254,-0.0166296497670555,0.023505029526664,-0.0243088864149176,0.0566219118691533,-0.0492260077284658,-0.00439221214680027,-0.0259078250999705,0.0167442792869425,-0.00565944691564464,0.00230031444327572,0.00805143978222164,0.024825270545988,0.00473119821793733,-0.0508488472165914,-0.0200589472324944,-0.0106521960306148,0.0115583505718973
61,0.00226409737774652,-0.0501478463467959,-0.0423990820317209,0.0532529422858409,-0.00660377701972524,-0.0273735673478482,-0.00678108957615411,0.0672823289320781,0.0155449455533208,0.059674681146816,-0.00665850967361419,0.016336561087067,-0.015376528613312,-0.0169066583359014,0.0199838109177526,-0.0251379752276683,0.0575721985108878,-0.0491870906900895,-0.00383865273608268,-0.0253047346981558,0.0167182528828504,-0.0049786159336556,0.00395193018553195,0.00908246035490518,0.026122579946967,0.00436321802093789,-0.050476232300768,-0.0202554820108474,-0.0093885348276575,0.0140053803124704
62,0.00201267452210869,-0.0493781529827973,-0.0425646798033973,0.0554383072634542,-0.00891924549543208,-0.0269539263975675,-0.0067148047917349,0.0662989678079991,0.0140807479365794,0.061099978865999,-0.00714620955353456,0.0126510584273667,-0.0165821163256204,-0.0171564485828854,0.0165415686462984,-0.0258687061628973,0.0584450852288029,-0.0491851885787818,-0.0032791601102122,-0.0246753492205588,0.0166503796477826,-0.0043901778259283,0.00558730408065288,0.0100186159435468,0.0274211482029656,0.00392341645018565,-0.0500108674203774,-0.0204875751619554,-0.00812031437871967,0.0164261867984909
63,0.00175665398333509,-0.0485928280780484,-0.0426902908047806,0.0575569387484455,-0.0111699866028826,-0.0265667119677959,-0.0066840397325108,0.0652163225549031,0.0126040795973075,0.062400022263086,-0.00753341542831052,0.00908977797855217,-0.0176911672446197,-0.0173800401071323,0.0131892245864837,-0.0265012752283637,0.0592445972750384,-0.0492188466589784,-0.00271373258261735,-0.0240252305981173,0.016544477566416,-0.00389171495598947,0.00720231412902464,0.010856526518184,0.0287119704580301,0.00341314267167595,-0.0494553867775529,-0.0207575520422077,-0.00685157041333036,0.0188115768662684
64,0.00149533627094832,-0.0477981473114013,-0.0427716209696343,0.0596030739768225,-0.0133399588676554,-0.0262161321941019,-0.00668900958271445,0.0640364107025534,0.0111133428205466,0.0635773810345866,-0.00781724943559525,0.00566771127067539,-0.0187011676237521,-0.0175784623853002,0.0099368049779608,-0.0270364801854636,0.059974854262054,-0.0492865266850106,-0.0021426048594638,-0.0233599747886949,0.0164046498108037,-0.00348019257754042,0.00879225386474392,0.0115936292672778,0.0299861609070081,0.00283434041621373,-0.0488129025258985,-0.0210673886035157,-0.00558650771882868,0.0211527327513717
65,0.00122819338054327,-0.0469997498704572,-0.0428045331393354,0.061571693302556,-0.0154135949734586,-0.025906355236579,-0.00672945120931173,0.0627613047656522,0.00960658249139114,0.064634975568571,-0.0079960376118515,0.00239893175136286,-0.0196109794534539,-0.0177527430491597,0.00679338352937341,-0.0274756940974996,0.0606399607332594,-0.0493866537761232,-0.00156625710120189,-0.0226851360073221,0.0162351857240342,-0.00315203515075113,0.0103518570290027,0.0122281889985461,0.0312350316425965,0.00218951173349694,-0.0480869494228786,-0.0214187008018661,-0.00432946836731621,0.0234412816986421
66,0.000954873417112439,-0.046202626752208,-0.0427850834556494,0.0634585210902406,-0.0173759815784144,-0.0256414492775976,-0.00680463071128092,0.0613931666026047,0.00808159926588266,0.0655759618534433,-0.00806928807508666,-0.000703502956851649,-0.020420803093133,-0.0179038936738217,0.00376703612698119,-0.0278208355281409,0.0612439014364279,-0.0495176592216357,-0.000985418702197236,-0.0220061540031636,0.0160404604694686,-0.00290320688265577,0.0118753364486712,0.012759296158343,0.0324501692913511,0.00148167666777724,-0.0472814261710223,-0.021812737178578,-0.00308489594879799,0.0256693582302699
67,0.000675197649025669,-0.045411122163563,-0.0427095547919541,0.0652600124742857,-0.0192130324810232,-0.0254253201259042,-0.00691335887808986,0.0599342853406581,0.00653606680708752,0.0664036178398461,-0.00803765062715935,-0.0036276436230494,-0.0211321188700732,-0.0180328933271116,0.00086480761548806,-0.0280743362342925,0.061790443067149,-0.0496780185362639,-0.000401066651508966,-0.0213282856937241,0.015824835690693,-0.00272929498817771,0.0133564364835467,0.013186852559191,0.0336235083286258,0.000714329483452843,-0.0464005345960724,-0.0222503743122941,-0.00185729640619438,0.0278296580087169
68,0.000389150117462179,-0.0446289473753431,-0.0425744870590102,0.0669733264597025,-0.0209116523872308,-0.0252616477022301,-0.00705401396359599,0.0583871177276935,0.00496765044484956,0.0671212337535665,-0.00790285897413112,-0.00636273612446988,-0.0217476095377566,-0.0181406702280141,-0.00190730902834018,-0.0282391071454144,0.062283044145561,-0.0498662841939956,0.000185581550178091,-0.0206565423597165,0.0155925634724009,-0.00262559413521972,0.0147884981596374,0.0135115451642817,0.0347473999529169,-0.000108607928992889,-0.045448717787265,-0.0227321148261646,-0.000651196138771037,0.0299154824080363
69,9.68601506517694E-05,-0.0438592061316485,-0.0423767042932947,0.0685962861443632,-0.0224598886904796,-0.0251538227269687,-0.00722457104243753,0.0567543297093852,0.00337412467815813,0.0677320087829357,-0.00766765711464819,-0.00889930153914194,-0.0222710658122278,-0.0182280819482369,-0.00454438096590616,-0.0283185033421862,0.0627247745591305,-0.0500811125875754,0.000773080318384001,-0.0199956334681844,0.0153476957799462,-0.00258719052893325,0.01616453587893,0.0137348085275183,0.0358146754205643,-0.000982834840971995,-0.0444305982843452,-0.0232580876336132,0.000528901907541745,0.0319207731110732
70,-0.000201421649085082,-0.0431044304887287,-0.0421133385039642,0.070127327134877,-0.0238470688790375,-0.025104884942477,-0.00742263709692141,0.0550388379914614,0.00175348705588609,0.0682389564353744,-0.00733571176224419,-0.0112292087458504,-0.0227072774585418,-0.0182958946630884,-0.0070425312134282,-0.0283162886472317,0.0631182461496936,-0.0503212848872135,0.00135977352568364,-0.0193499180295593,0.0150940013889868,-0.00260904410708884,0.0174773243918063,0.01385877672208,0.0368187027954193,-0.00190372205315507,-0.0433509173402157,-0.0238280501168039,0.00167856341066377,0.0338401362761719
71,-0.000505353171070581,-0.042366625758515,-0.0417818503168991,0.071565435497732,-0.0250639214247778,-0.0251174641798922,-0.00764549088480664,0.0532438503309251,0.000104066137234526,0.0686448206769212,-0.00691151294007427,-0.0133457385826456,-0.0230619125778158,-0.0183447620139685,-0.0093989219796779,-0.0282366003261859,0.0634655555467736,-0.0505857216034431,0.00194381678725147,-0.0187233642105056,0.0148348921021127,-0.00268606736075971,0.0187194945391375,0.0138862258038942,0.0377534361564672,-0.00286636324526511,-0.0422144762199442,-0.0244413919531115,0.00279346833495798,0.0356688560584534
72,-0.000814535352566118,-0.0416473230657786,-0.0413800465090819,0.0729100768249877,-0.026102678280485,-0.0251937255232018,-0.00789012656365404,0.0513729033077395,-0.00157537856141802,0.068952004739254,-0.00640026510902732,-0.0152436385573536,-0.0233413878502587,-0.0183752041835527,-0.011611725975208,-0.0280839142755731,0.0637682402535132,-0.0508734907914848,0.00252320398777528,-0.0181195177240566,0.0145733597939233,-0.00281319936290582,0.0198836361185676,0.013820508043773,0.038613456429146,-0.00386562673497925,-0.0410260804185387,-0.0250971403346625,0.00386945631741165,0.0374028975191328
73,-0.00112855040072065,-0.040947637897821,-0.040906094571776,0.0741611181923363,-0.0269571574144837,-0.0253353197335647,-0.00815329999702168,0.0494298963600546,-0.00328556649080267,0.0691625142052273,-0.00580777135692922,-0.0169191670733145,-0.0235527325249732,-0.0183875878057003,-0.0136800862204258,-0.0278630109512771,0.0640272487781596,-0.0511838099642383,0.00309579741886559,-0.0175414793076819,0.0143119255381278,-0.00298547368285913,0.0209624061042624,0.0136654793192931,0.0393940031607833,-0.00489620710153457,-0.0397904875931901,-0.0257939663622789,0.0049025710254381,0.039038899202778
74,-0.00144700242366768,-0.0402683329345457,-0.0403585344745826,0.0753187449419313,-0.0276228241379879,-0.0255433399781914,-0.00843157664309314,0.0474191209215841,-0.00502661746439801,0.0692779156714591,-0.00514031328417547,-0.0183701261341804,-0.0237034489193521,-0.018382107335426,-0.015604065055551,-0.0275789421735731,0.0642429253744414,-0.0515160419045668,0.00365936078174939,-0.0169918913846855,0.0140526017587075,-0.00319807898826789,0.0219486403517227,0.0134254211819145,0.0400909967427597,-0.00595267616269809,-0.038512359911728,-0.0265301924358261,0.00588910276641759,0.0405741558982327
75,-0.00176955911889162,-0.0396098833970366,-0.0397362878226409,0.0763833743305292,-0.0280968303283141,-0.0258182857654264,-0.00872137992842156,0.04534528357873,-0.00679798585443133,0.0692993119410531,-0.00440452926833625,-0.0195958815252119,-0.0238013721064561,-0.0183587684906553,-0.0173845832268489,-0.0272369988366778,0.0644150097100163,-0.0518696846818741,0.00421159421418466,-0.0164729337905392,0.0137968680204223,-0.00344641128850364,0.0228354668495519,0.013104959204587,0.0407010507856978,-0.00702953282970549,-0.0371962214187615,-0.0273038005060581,0.00682562867553018,0.042006592316584
76,-0.00209599311148886,-0.0389725431458735,-0.0390386646047987,0.0773555681446476,-0.0283780310161173,-0.0261600348268666,-0.00901903903884981,0.0432135222661099,-0.00859840863853662,0.0692273343280446,-0.00360729377748691,-0.0205973695370008,-0.0238545313349951,-0.0183173743479857,-0.0190233500866249,-0.0268426794565739,0.0645426515256156,-0.0522443562809251,0.00475017042783312,-0.0159863282389931,0.0135456607395647,-0.00372611695459234,0.0236164185392588,0.0127089792693573,0.0412214745721296,-0.00812125140258467,-0.0358464209154294,-0.0281124410967189,0.0077090498673,0.0433347286130189
77,-0.00242622152123317,-0.038356409796768,-0.0382653677213697,0.0782359463993263,-0.028466978182805,-0.0265678235144933,-0.00932083511583856,0.0410294146401479,-0.010425868066311,0.0690621522653788,-0.00275560033042607,-0.0213770894027874,-0.0238710155504584,-0.0182575146305977,-0.0205227860946405,-0.0264016594137336,0.0646244400815784,-0.0526397743410834,0.00527277099685849,-0.0155333510084852,0.0132993767607307,-0.00403312585850256,0.0242855437137531,0.0122425434732512,0.0416502657361727,-0.00922232790743754,-0.034467100739258,-0.02895344304813,0.00853662500501207,0.0445576388443476
78,-0.0027603423655161,-0.0377614871997006,-0.0374164954572837,0.0790251042069994,-0.0283658920002043,-0.0270402361017294,-0.00962304492759343,0.038798977908928,-0.0122775694360273,0.068803500008733,-0.00185645057268007,-0.0219390807640521,-0.0238588451744547,-0.0181785586692135,-0.0218859389409863,-0.0259197606899105,0.0646584479170259,-0.0530557315809719,0.00577712182370832,-0.0151148531528783,0.0130578904161223,-0.00436367420528634,0.0248375120270117,0.0117108073147923,0.0419860935440354,-0.0103273241177115,-0.0330621717189154,-0.0298238239731699,0.00930599981784542,0.0456749035876675
79,-0.00309866647377854,-0.0371877437461306,-0.036492542032233,0.0797235338295832,-0.0280786101323851,-0.0275752031972789,-0.0099219811873644,0.036528659550485,-0.0141499341988928,0.0684507198285577,-0.000916751751168542,-0.0222888856611624,-0.0238258520591921,-0.0180796524480537,-0.0231163947206565,-0.0254029218624216,0.0646422881745803,-0.0534920675467626,0.0062610268263363,-0.0147312873869568,0.0128205833674516,-0.00471431687943501,0.0252677142032725,0.0111189397745076,0.0422282733650671,-0.0114309089434437,-0.0316352944661447,-0.0307203014521032,0.0100152321752666,0.0466865580468706
80,-0.00344174369526076,-0.0366351651230843,-0.0354943963166367,0.0803315538120184,-0.0276105161020151,-0.0281700093038265,-0.0102140288118859,0.0342253185198575,-0.0160386083454103,0.0680028206921579,5.67753709228702E-05,-0.0224334947648367,-0.0237795692719587,-0.0179597200685234,-0.0242181856748257,-0.0248571681065375,0.0645731844753218,-0.0539486373718573,0.00672239894340532,-0.0143827406707651,0.0125863862343899,-0.0050819293847446,0.0255723536253824,0.0104720478228074,0.0423767331232368,-0.0125278969160084,-0.0301898670548619,-0.0316393050232823,0.010662812409364,0.0475930370423369
81,-0.00379038232225415,-0.036103800317948,-0.03442333875377,0.080849246941479,-0.0269684480921348,-0.0288213093835062,-0.0104956765464765,0.0318961967271399,-0.0179384857791937,0.0674585510665518,0.00105767641081,-0.0223812778159465,-0.0237271320869426,-0.0178174698752384,-0.0251956960712193,-0.0242885809668813,0.064448052069823,-0.054425278271868,0.0071592876390454,-0.0140689714208638,0.0123538307456199,-0.00546369971699108,0.0257485281090231,0.00977510678020438,0.0424319726966681,-0.0136132835408173,-0.0287290190257049,-0.0325769890519946,0.0112476786563173,0.0483951183158373
82,-0.00414566082153851,-0.0355937998876656,-0.0332810364772038,0.0812764085861272,-0.0261605898990509,-0.0295251541309827,-0.0107635435253528,0.0295488807644326,-0.0198437461506337,0.0668164841312371,0.00207982966490784,-0.0221418985193866,-0.0236751912749308,-0.0176514053932182,-0.0260535678252469,-0.0237032676907643,0.0642635887467926,-0.0549217745220453,0.00756990220303982,-0.013789450212462,0.0121211109168002,-0.00585711076255856,0.0257943003317361,0.00903289782067452,0.0423950173825359,-0.0146822773360524,-0.0272556115431929,-0.0335292465797233,0.0117692270665236,0.0490938655883296
83,-0.00450893116297424,-0.0351054457343678,-0.0320695365619359,0.0816125067441529,-0.0251963460630586,-0.0302770235050015,-0.0110144004824322,0.0271912540686614,-0.0217479064071866,0.0660751133874242,0.00311749777492264,-0.0217262144344077,-0.0236298394909728,-0.0174598411227475,-0.0267966074647443,-0.0231073299672431,0.0640163737562136,-0.0554378216754382,0.00795263028049844,-0.0135434028041253,0.0118861515712368,-0.00625991405583609,0.0257087555808528,0.00824995375207473,0.0422673666621381,-0.015730328420917,-0.0257722434221193,-0.0344917242711049,0.0122273168078072,0.0496905727839433
84,-0.00488181325145053,-0.0346391718695561,-0.0307912573008284,0.0818566548820598,-0.0240862034716847,-0.0310718679321115,-0.0112451854763387,0.0248314399281847,-0.0236438851182731,0.0652329563955148,0.00416536412427963,-0.0211461627100882,-0.0235965512711307,-0.0172409231306796,-0.0274296960143128,-0.0225068319811618,0.0637029728038546,-0.0559729907800649,0.00830605122054295,-0.0133298543150509,0.01164668237929,-0.00667009594619001,0.0254920457091041,0.00743051403125186,0.0420509395839971,-0.0167531535610568,-0.0242812626305218,-0.0354598385860346,0.0126222698564179,0.0501867107799006
85,-0.00526618020107111,-0.0341955758941609,-0.0294489773590344,0.0820075983656295,-0.0228415819478658,-0.0319041564736971,-0.0114530141412297,0.0224777359705591,-0.0255240784495041,0.0642886641731487,0.00521855373556499,-0.0204146328214985,-0.0235801368668053,-0.0169926542651958,-0.0279577033201309,-0.0219077677666069,0.0633200470035544,-0.0565266933431983,0.00862894399911183,-0.013147673411567,0.0114003155046651,-0.00708583741477211,0.0251454184359319,0.00657848977941539,0.0417480181307185,-0.0177467576209232,-0.0227847827701814,-0.03642879330963,0.0129548656347758,0.0505838779601787
86,-0.00566413443240047,-0.0337754211656925,-0.0280458226317836,0.0820637149933261,-0.021474676498296,-0.0327679311413556,-0.0116351846204495,0.0201385410011752,-0.0273804464922265,0.0632411336478011,0.00627263884392578,-0.0195453277607973,-0.0235847098738655,-0.016712923707192,-0.0283854082522953,-0.0213160279240673,0.0628644635375031,-0.0570981477713727,0.00892028963947678,-0.0129956154119654,0.0111446249100474,-0.00750546893627674,0.0246712314003567,0.00569743935920609,0.0413611899484272,-0.0187074514123326,-0.0212847039347024,-0.0373935985728619,0.0132263306114934,0.050883755741035
87,-0.00607797481816021,-0.033379629860453,-0.0265852506184981,0.0820230298363983,-0.0199982940027926,-0.0336568664579587,-0.011789177480752,0.0178222752898961,-0.0292046085004073,0.0620896204843052,0.00732362971053503,-0.0185526154193761,-0.0236136683593766,-0.016399540458212,-0.0287174261093298,-0.020737365845622,0.0623334056776044,-0.0576863479866272,0.00917926821858121,-0.0128723632943084,0.0108772253885513,-0.00792742189601553,0.0240729506509884,0.00479055486224522,0.0408932917965825,-0.019631865964916,-0.0197827372530035,-0.0383490914913511,0.0134383230264781,0.0510880700997333
88,-0.0065101553433279,-0.0330092673632777,-0.0250710321311638,0.08188324427937,-0.0184256871733168,-0.0345643332942178,-0.0119126510382716,0.0155372956157801,-0.0309879454493031,0.0608338495998566,0.00836795160435973,-0.0174513721534984,-0.0236696889569754,-0.0160502702556035,-0.0289581444099526,-0.020177363668925,0.0617244797677152,-0.058290034883445,0.00940525070178544,-0.0127765656877854,0.0105958494465328,-0.0083501781447811,0.0233551335435631,0.00386065963810977,0.0403473550212453,-0.0205169632770733,-0.0182804323457093,-0.0392899585388918,0.0135929129409944,0.0511985599747654
89,-0.00696323597597626,-0.0326655186250612,-0.0235072301784871,0.0816417788459551,-0.0167703886017107,-0.0354834659644801,-0.0120034326502507,0.0132918065680675,-0.0327217082118525,0.0594741207354876,0.00940240921143002,-0.0162568207476622,-0.0237547331984157,-0.0156628753042609,-0.029111668093781,-0.0196413982507795,0.0610358167620405,-0.0589076712472913,0.00959778598825467,-0.0127068710418795,0.0102984202617832,-0.00877221930119454,0.0225233962997457,0.00291021677575116,0.0397265542664611,-0.0213600436348473,-0.0167792068562304,-0.0402107597554812,0.0136925578399015,0.0512169532179477
90,-0.00743982665995387,-0.0323496573155382,-0.0218981759096385,0.0812958290955465,-0.0150460476496976,-0.0364072315412861,-0.0120595066349319,0.0110937697548987,-0.0343971295524301,0.0580114065697686,0.0104241400221205,-0.0149843651683007,-0.0238700651778511,-0.0152351561251115,-0.0291817749700206,-0.0191346075127784,0.0602661659638959,-0.0595374207048351,0.00975658367097236,-0.0126619572963182,0.0099831190732985,-0.00919197739391799,0.0215843667568844,0.00194134822944995,0.0390341605166065,-0.0221587496100781,-0.0152803771693817,-0.0411059548667536,0.013740074033136,0.0511449505684367
91,-0.00794252553493218,-0.0320630087618835,-0.0202484415610504,0.0808424335908424,-0.0132662728157725,-0.0373285003454535,-0.0120789995720165,0.00895081268143264,-0.0360055380667178,0.0564474410317915,0.0114305584936395,-0.013649424627675,-0.0240162795094436,-0.0147649947473698,-0.0291718820564282,-0.0186618575635845,0.0594149787150625,-0.0601771312177664,0.0098814931178292,-0.012640556515553,0.0096484455196775,-0.00960778837663366,0.0205456231014816,0.000955864066819191,0.0382734994088796,-0.0229110668676869,-0.0137851893998246,-0.0419699313624949,0.013738604119544,0.0509842178898503
92,-0.00847385265923778,-0.0318069077995227,-0.0185628104243859,0.0802785526739311,-0.0114444820451744,-0.0382401165858097,-0.0120601638041083,0.00687013912059166,-0.0375384721542715,0.0547847956892042,0.0124192929833411,-0.0122672695482979,-0.0241933384381063,-0.0142503984179133,-0.0290850232444189,-0.018227711044054,0.0584824799504597,-0.0608243235662727,0.00997247956328724,-0.0126414741010416,0.00929326962829131,-0.0100178499511027,0.0194156196241153,-4.46988901557145E-05,0.0374479155734655,-0.0236153219247484,-0.0122948497218932,-0.0427970345463513,0.0136915807926873,0.0507363866700413
93,-0.00903618065238384,-0.0315826527675281,-0.0168462439400133,0.0796011565516099,-0.00959376323641835,-0.0391349681582536,-0.012001360002954,0.00485844281014764,-0.0389877921002149,0.0530269423454037,0.0133881175961383,-0.0108528620291785,-0.02440061689584,-0.0136895429692803,-0.0289238385132173,-0.0178363971715911,0.0574697257540446,-0.0614761851942871,0.0100295979640751,-0.0126636023492476,0.00891687436252179,-0.0104201850030815,0.0182036007550978,-0.00105902995452296,0.0365607435558807,-0.0242701770116029,-0.0108105531231885,-0.043581599527397,0.0136026872891422,0.0504030625361209
94,-0.00963166378373542,-0.031391456955497,-0.0151038461138083,0.0788073209853397,-0.00772674694705786,-0.0400060546653897,-0.0119010396816637,0.00292182626979926,-0.0403457883675591,0.0511783002698972,0.0143348811846636,-0.00942070336655916,-0.0246369542589712,-0.0130808149788671,-0.0286905746981034,-0.0174917839775093,0.0563786453245111,-0.0621295697063253,0.010052965417289,-0.0127059282790847,0.0085189878553192,-0.0108126117979522,0.0169195048328817,-0.00208599009603336,0.035615285660463,-0.0248746221888207,-0.00933350969881712,-0.0443179850777934,0.0134758148076987,0.0499858412939318
95,-0.0102621671082472,-0.0312343988516182,-0.013340825550855,0.0778943287104501,-0.005855493018989,-0.0408465527834003,-0.0117577285253763,0.00106572644401366,-0.0416052842641584,0.0492442667992787,0.0152574357832007,-0.00798469107571113,-0.0249007115505468,-0.0124228518658928,-0.0283870975959335,-0.0171973532340272,0.0552120660757091,-0.0627810022152103,0.0100427329645888,-0.012767535805479,0.00809980468983832,-0.011192721902956,0.0155738592159133,-0.00312455135518791,0.0346147968358342,-0.025427964875186,-0.0078649676636675,-0.0450006092306578,0.0133150172637183,0.0494863317706089
96,-0.0109291972875732,-0.0311123725539248,-0.011562455492224,0.076859774575305,-0.00399139253598993,-0.0416498781802611,-0.0115700113791988,-0.000705151255270743,-0.0427597312487402,0.0472312303754125,0.0161535667459879,-0.00655798770005897,-0.0251898328429172,-0.0117145791087594,-0.0280149149664273,-0.0169561785540293,0.0539737209479439,-0.0634266906419627,0.00999905761085315,-0.0128476024817996,0.00765999582798746,-0.0115578666056337,0.0141776684690814,-0.0041737315445757,0.0335624765119004,-0.0259298169431733,-0.00640623234857267,-0.0456239864398864,0.0131244637860109,0.0489061845298265
97,-0.0116338367341734,-0.031026039690863,-0.00977403232530703,0.0757016722954944,-0.00214508619911695,-0.0424097432772912,-0.0113365196758562,-0.00238688910285526,-0.043803295276854,0.0451465654249241,0.0170209267985592,-0.00515290348325203,-0.0255019096440406,-0.0109552438222482,-0.0275752097627739,-0.0167709071155665,0.0526682373840408,-0.0640625429649308,0.00992207536875,-0.0129453911694261,0.00720070703183249,-0.0119051523876056,0.0127422974355862,-0.00523252574094036,0.0324614671014249,-0.0263800795415988,-0.00495868056325023,-0.0461827660705799,0.012908389411989,0.048247125348852
98,-0.012376682677733,-0.0309757841562139,-0.00798083310994991,0.0744185606613382,-0.000326399864591952,-0.0431202102428302,-0.0110559220090524,-0.00397640221326303,-0.0447309327558208,0.0429986088235042,0.0178569760998619,-0.00378079472305703,-0.0258342470935695,-0.0101444440099306,-0.0270688827044369,-0.0166437454140217,0.051301107820856,-0.0646841903066436,0.00981187610207099,-0.0130602371145044,0.00672354586771715,-0.0122314457929449,0.0112793510435862,-0.00629983615174809,0.03131485870308,-0.0267789258115807,-0.00352376985313934,-0.0466717719364439,0.0126710444878953,0.0475109921995511
99,-0.0131577926787812,-0.0309616708999299,-0.00618807271911355,0.0730096070191987,0.00145570236033837,-0.0437757387106559,-0.010726918464685,-0.00547147172803399,-0.0455384548721442,0.0407966180245798,0.0186589302566075,-0.00245197932806072,-0.0261839308480671,-0.00928215290037022,-0.0264966030948974,-0.0165764493790981,0.0498786419556328,-0.0652870156359628,0.00966848088152497,-0.0131915310175217,0.00623055762535736,-0.0125333878049319,0.00980055269590639,-0.0073744019910462,0.0301256993907438,-0.027126781672053,-0.00210304234488835,-0.0470860425506435,0.0124166433319384,0.0466997743649883
100,-0.0139766380060793,-0.0309834099328528,-0.00440086123274062,0.0714747058680122,0.00319314741901306,-0.0443712278241559,-0.0103482392128231,-0.00687076532860119,-0.0462225792692092,0.0385507112605287,0.0194237180339151,-0.00117567076524895,-0.0265478935960078,-0.00836873788410636,-0.0258588665947719,-0.0165703191138902,0.0484079014588709,-0.0658661877521139,0.00949182248951869,-0.0133386987689991,0.00572419072013463,-0.0128074176179627,0.00831762305332919,-0.00845473102050721,0.0288970103476975,-0.027424304864342,-0.000698123060260092,-0.0474208717104744,0.012149312767137,0.045815652250887
101,-0.0148320661547601,-0.0310403266010777,-0.00262416224670771,0.0698145704714083,0.0048787653054716,-0.0449020523172567,-0.00991864774006111,-0.00817384463623175,-0.0467809682815646,0.0362717905424023,0.0201479502721809,4.00687739225873E-05,-0.0269229802105472,-0.00740497368982456,-0.0251560584936852,-0.0166261984229414,0.0468966182102863,-0.0664167001084549,0.00928172961883907,-0.0135011785933957,0.00520725237162213,-0.0130498054670915,0.0068421609511339,-0.00953903440237684,0.0276318050054813,-0.0276723624606741,0.000689287227050802,-0.047671848994923,0.0118730411761693,0.0448610364178584
102,-0.01572227361407,-0.0311313390658512,-0.000862752765208226,0.0680308154816758,0.00650628439695743,-0.0453640924515881,-0.00943694896554732,-0.00938115933699803,-0.0472122531695433,0.0339714484874328,0.0208279012535161,0.00118835554046768,-0.0273060106203408,-0.00639204957006384,-0.0243885208890555,-0.0167444791995771,0.0453530975184106,-0.0669334139299626,0.00903791520823066,-0.0136783963929259,0.0046828555596769,-0.0132566939604847,0.00538552808860871,-0.010625166471222,0.0263331112761961,-0.0278720070575846,0.00205742432121065,-0.0478348997183517,0.0115916287715294,0.043838604366474
103,-0.0166447897997415,-0.0312549437879433,0.000878814665630324,0.0661260287030454,0.00807031106570609,-0.045753757733579,-0.00890200233607378,-0.0104940281441762,-0.0475160440401402,0.0316618602879189,0.0214595034663482,0.00226349166726586,-0.027693839555868,-0.00533157040638957,-0.023556622081629,-0.0169251106441096,0.0437861081325098,-0.0674111049820152,0.0087599692498947,-0.0138697401136029,0.00415435844586604,-0.0134241471543082,0.0039587390067102,-0.0117105709605454,0.0250039959244505,-0.0280244518908524,0.00340447766128474,-0.0479063238533675,0.0113086398094711,0.0427513336528088
104,-0.0175964728496185,-0.0314092096620903,0.00259624695326159,0.0641038302861176,0.00956629480385008,-0.0460680044331548,-0.00831273983869223,-0.0115146069750281,-0.0476929253833268,0.0293556623949462,0.0220383563986518,0.00326095320689836,-0.0280834124115232,-0.00422555178760534,-0.0226608264393496,-0.0171676131873222,0.0422047611539206,-0.0678445132616408,0.0084473562939945,-0.0140745339680661,0.00362529760801119,-0.0135482064195185,0.00257235772503857,-0.0127922351183653,0.0236475901108881,-0.0281310451229354,0.00472861147189897,-0.0478828334114321,0.0110273575034108,0.0416025299959587
105,-0.0185735177458215,-0.031591781278231,0.00428554200003463,0.0619689178401593,0.0109904803510288,-0.0463043470163072,-0.00766818870749614,-0.0124458449667443,-0.0477444373940505,0.0270658197200446,0.0225597496543548,0.00417735946899106,-0.0284718165533196,-0.00307640925798194,-0.0217017629642627,-0.0174710969007145,0.0406183801921065,-0.0682283948081119,0.00809941776703102,-0.0142920133445829,0.00309931656609076,-0.013624951979825,0.00123640225159595,-0.013866653013238,0.0222671151524196,-0.0281932435665748,0.00602798922056734,-0.0477615877509807,0.0107507424084997,0.0403958491589152
106,-0.0195714769768323,-0.0317998916030489,0.00594301627117183,0.0597270961725438,0.0123398485348741,-0.0464608636864517,-0.00696749844010918,-0.013291429181796,-0.0476730434857397,0.0248054833523229,0.0230187003403324,0.00501042471241739,-0.0288563274994146,-0.00188694207064825,-0.0206802908213564,-0.0178342840881138,0.0390363652829696,-0.0685575747691752,0.00771537911759318,-0.0145213012102387,0.00258009117700797,-0.0136505688536613,-3.97419866636157E-05,-0.014929799170503,0.0208659075830564,-0.0282125861193957,0.0073008004672451,-0.0475402262699587,0.0104813950503008,0.0391353115364934
107,-0.0205852936935208,-0.0320303841792543,0.00756532795094662,0.0573852906119321,0.013612047716885,-0.0465361963037733,-0.00620997158562847,-0.0140557190517579,-0.0474820846276518,0.0225878409447337,0.023410004320563,0.00575889357287399,-0.0292344495061347,-0.000660311908783693,-0.0195975601521788,-0.0182555356734159,0.0374680531923778,-0.0688270008134576,0.00729436170684511,-0.0147613867801526,0.00207125354328163,-0.0136214158140629,-0.00124739891223202,-0.0159771134907717,0.0194474426607027,-0.0281906671944817,0.0085452890937662,-0.0472168979332956,0.0102215235534818,0.0378253085641283
108,-0.0216093470500852,-0.0322797447329228,0.00914949534295513,0.0549515431411646,0.0148053178779141,-0.0465295450171008,-0.0053950976260319,-0.0147436717778404,-0.0471757213521672,0.0204259620403349,0.0237283005876209,0.0064224618952752,-0.029603950204895,0.000599982851368555,-0.0184550665976235,-0.0187328809267235,0.0359225767695975,-0.0690317959495681,0.00683539927350483,-0.0150111071750732,0.00157631611632984,-0.0135340958923185,-0.00237866804973504,-0.0170034981933909,0.0180153555458786,-0.0281291104418619,0.00975978183535458,-0.0467902870867154,0.00997291698871357,0.0364706002640439
109,-0.0226375091602538,-0.0325441418635002,0.010692910274368,0.052434990854594,0.0159184094765884,-0.0464406579983817,-0.00452258915346652,-0.0153607600441104,-0.0467588644755968,0.018332640689845,0.023968147668256,0.00700168488737223,-0.0299628890533135,0.00189013667124737,-0.0172546980907754,-0.019264050005935,0.0344087259989028,-0.0691673097990332,0.00633745872416435,-0.0152691327284842,0.00109859767799802,-0.0133855268972915,-0.00342647970860319,-0.0180033273025314,0.0165734594744166,-0.0280295430664977,0.0109427160057173,-0.0462596350175043,0.00973692509660171,0.0350763034652128
110,-0.023663212847036,-0.0328194762702097,0.0121933463727279,0.0498458265598173,0.0169504992688543,-0.0462698167145413,-0.00359241945120871,-0.015912883505027,-0.0462370957541691,0.0163202377594931,0.0241241106679089,0.00749787471172065,-0.0303096394837768,0.00320606944426582,-0.0159987726489537,-0.019846508732679,0.0329348133295463,-0.0692291673745849,0.00579946492880638,-0.0155339565328141,0.0006411528527062,-0.0131730104050482,-0.00438463869471008,-0.0189704689589322,0.0151257603543021,-0.0278935710603447,0.0120926653134047,-0.0456247567417597,0.00951444496700653,0.0336478704655791
111,-0.0246795291266391,-0.0331014377473937,0.0136489621920014,0.0471952416616276,0.0179011052862601,-0.0460178172044801,-0.00260486051958832,-0.0164062755827633,-0.0456165798531373,0.0144005253477663,0.0241908572767863,0.00791298978490844,-0.0306429047509647,0.00454346138407714,-0.0146900660903664,-0.0204774949703674,0.0315085457508822,-0.0692133144389129,0.00522032913701224,-0.0158038887335992,0.00020670673470099,-0.012894297694757,-0.00524785629538917,-0.0198983206021132,0.0136764673342659,-0.0277227556794098,0.0132083627118195,-0.0448860525278147,0.00930591515237503,0.032191058144552
112,-0.0256792531492393,-0.0333855689661717,0.0150582992674344,0.0444953517912161,0.0187700031341052,-0.0456859478495567,-0.00156052055112626,-0.0168474071529548,-0.0449039691394997,0.0125845357246681,0.02416326081481,0.00824951815477406,-0.0309617275924377,0.00589778942400322,-0.0133318288209544,-0.0211540559285079,0.0301369059265569,-0.0691160585634821,0.00459898057145163,-0.0160770559909704,-0.000202403891768732,-0.0125476511674204,-0.00601177041960887,-0.020779856830825,0.0122299990162006,-0.0275185915105012,0.0142887193092195,-0.044044513708589,0.00911131757741012,0.0307118877763802
113,-0.0266549971260409,-0.0336673348583822,0.0164202752725554,0.0417591059691675,0.0195571456886204,-0.0452759641338703,-0.000460379851075883,-0.0172428887116616,-0.0441063029162617,0.0108824171785798,0.0240365081902115,0.00851035737871912,-0.0312654939196101,0.00726436435532794,-0.0119277910765676,-0.0218730856823113,0.028826044514696,-0.0689341050741497,0.00393440070112619,-0.0163514064294171,-0.000584281407590779,-0.0121318998830034,-0.00667295390461675,-0.0216076895169506,0.0107909851127859,-0.0272824864847047,0.015332838487456,-0.0431017223928835,0.00893018747770721,0.0292165960360954
114,-0.0275992886080845,-0.033942196239376,0.0177341725339207,0.0390001804079941,0.0202625881464046,-0.0447900608860276,0.000694175781514801,-0.0175993726033929,-0.0432309027975253,0.00930329910188272,0.0238062104909967,0.00869869333101512,-0.0315539308470851,0.0086383679625858,-0.0104821562597936,-0.0226313621716861,0.0275811855850038,-0.0686645871614213,0.00322565964740508,-0.0166247202887266,-0.000937509140798924,-0.0116464879862317,-0.00722891112277626,-0.0223741395219773,0.00936426348306583,-0.0270157442028858,0.0163400245360066,-0.0420598447576985,0.00876163146017743,0.0277115779241797
115,-0.0285046723518802,-0.0342056861567982,0.0189996222284793,0.0362328583593689,0.020886420211998,-0.0442308424771841,0.00190132515418533,-0.0179234568519152,-0.0422852659785278,0.00785516856291121,0.023468513822573,0.00881788032704013,-0.0318270994439609,0.0100148894600386,-0.00899958227448253,-0.0234255829308913,0.0264065468035896,-0.068305089548641,0.00247195413141215,-0.0168946263706294,-0.00126118314231245,-0.0110915149570275,-0.00767806313906414,-0.0230713191468488,0.00795487260832627,-0.0267195489397527,0.0173097852956279,-0.0409216176901629,0.00860435363132311,0.0262033225582436
116,-0.0293638139138029,-0.0344534873397299,0.0202165846440841,0.0334718976835307,0.0214287070044607,-0.0436012914215862,0.00315878614127816,-0.0182215920738812,-0.041276958182995,0.00654476049332684,0.0230202079497926,0.00887132487104299,-0.032085382649604,0.0113889605916724,-0.00748515102887704,-0.0242523988015468,0.0253052757968373,-0.0678536652500949,0.00167264633219675,-0.0171586242469904,-0.00155493326182304,-0.0104677668116618,-0.00801972178296679,-0.0236912242370407,0.0065680396935362,-0.0263949536843657,0.0182418285158514,-0.0396903286473273,0.00845668958869212,0.0246983429838015
117,-0.0301696030619304,-0.0346815090513446,0.0213853259254316,0.0307323880556069,0.0218894400259517,-0.0429047357868074,0.00446379530123122,-0.0184999928714189,-0.0402135080719614,0.00537746346207636,0.0224588302977812,0.00886237521496028,-0.0323294688375372,0.0127555888253052,-0.00594432654468306,-0.0251084448993636,0.0242794038310185,-0.0673088451100463,0.000827302991788544,-0.0174141120575985,-0.00181893308530206,-0.00977673758724001,-0.00825405311085789,-0.0242258346675403,0.00520916469047751,-0.0260428715539833,0.0191360518530462,-0.0383697887128354,0.0083166479189001,0.023203101335973
118,-0.0309152550818584,-0.0348859616213155,0.0225063917556289,0.0280295999202626,0.0222684992703885,-0.042144815773364,0.00581309335204388,-0.0187645549949214,-0.0391023048734945,0.00435724280721975,0.0217827629127324,0.00879421876272327,-0.0325603315341283,0.0141097881496486,-0.00438290236881451,-0.0259903681404174,0.0233298176584129,-0.0666696399884957,-6.42659236768764E-05,-0.0176584195813371,-0.00205389855788319,-0.00902064065654697,-0.00838203084858638,-0.0246672217506204,0.00388380063270122,-0.025664070883032,0.0199925266605989,-0.0369642989485272,0.00818195869522156,0.0217239308347765
119,-0.0315944080817916,-0.0350634269523988,0.0235805784381288,0.0253788274595001,0.0225656272647523,-0.0413254497703708,0.00720291709693166,-0.0190207794427969,-0.0379505009411875,0.00348658265535335,0.0209913200803563,0.00866978917108043,-0.032779205803976,0.0154466070726216,-0.0028069392316633,-0.0268948506868359,0.0224562500868697,-0.0659355356439825,-0.00100196971704303,-0.0178888461174286,-0.00226107537850576,-0.00820240963439104,-0.00840538052018341,-0.0250076609470596,0.00259763074659607,-0.0252591742389409,0.020811475940126,-0.0354786102628121,0.00805012832174688,0.020266956215026
120,-0.0322012144703927,-0.0352109233580884,0.0246089018460402,0.0227952279486922,0.0227804155363337,-0.0404508001390617,0.00862899827197615,-0.0192737045227397,-0.0367649208703232,0.00276644807809539,0.0200848244443829,0.00849168478776739,-0.0329875618022362,0.0167611535213823,-0.00122269412575928,-0.0278186287441319,0.0216572895314394,-0.0651064805511052,-0.00198540132815147,-0.0181027025674321,-0.00244221551027776,-0.00732568884344295,-0.00832651508712457,-0.0252397481227126,0.00135644285642597,-0.0248286615518525,0.0215932470243305,-0.0339178771419671,0.00791849993242309,0.0188380142753973
121,-0.0327304248860062,-0.0353259631931002,0.0255925646975834,0.0202936599448536,0.0229123036930186,-0.0395252389233699,0.0100865696580861,-0.0195278467416556,-0.0355519786939388,0.00219626832122712,0.0190646696584362,0.0082620998341362,-0.0331870759673282,0.0180486164599773,0.000363457812877184,-0.0287585062318148,0.0209304085077011,-0.064182867073436,-0.00301380429683657,-0.0182973569669739,-0.0025995433985003,-0.00639481350199923,-0.00814846304179279,-0.025356517479976,0.000166101635430631,-0.024372877467218,0.0223382797422062,-0.0322876057108622,0.00778431842487745,0.0174425762787453
122,-0.0331774629949243,-0.0354066018831275,0.0265329226000438,0.0178885227808927,0.022960590997319,-0.0385533136401621,0.0115703786630536,-0.0197871512216761,-0.0343176045470974,0.00177394170089567,0.0179333678391148,0.00798276948502986,-0.0333796002880224,0.019304284167909,0.0019451070559534,-0.0297113629533735,0.0202720107310163,-0.063165506584226,-0.00408604302679251,-0.0184702825809492,-0.00273571272214582,-0.00541477997497562,-0.00787479001576425,-0.0253515592092252,-0.000967480727978389,-0.0238920429412083,0.0230470709722109,-0.0305935967017373,0.00764479909352441,0.0160856739466527
123,-0.0335384897461368,-0.0354514771416902,0.0274314492825455,0.0155935998313467,0.022924460014659,-0.0375397132641973,0.013074708438863,-0.0200549521609264,-0.0330671820280548,0.00149586239954418,0.01669458036297,0.00765492972650645,-0.0335671300299465,0.0205235592587091,0.00351589735015675,-0.0306741570089781,0.0196774961988862,-0.0620555992816466,-0.00520057702642018,-0.0186191075485038,-0.00285375471904282,-0.00439120659161115,-0.00750951507455968,-0.0252191348491759,-0.00203837487874483,-0.0233862710013345,0.0237201366170844,-0.0288418840101411,0.00749719872651858,0.0147718307651673
124,-0.0338104558674287,-0.0354598373762171,0.0282897014129693,0.0134219079685613,0.0228030116285495,-0.0364892344962707,0.014593406458446,-0.0203339436730148,-0.031805497302571,0.00135696901878769,0.0153531308611852,0.00727929258491598,-0.0337517702515613,0.0217019706562943,0.0050696154675493,-0.0316439213220528,0.0191413433594814,-0.0608546995773108,-0.00635543975575022,-0.0187416649460936,-0.0029570193139018,-0.00333028567932159,-0.00705702297154151,-0.0249542883173374,-0.00304066510262789,-0.0228555864911734,0.0243579721346412,-0.0270386696037495,0.00733888794871237,0.0135050002554888
125,-0.0339911416097093,-0.0354315585280013,0.0291092833690513,0.0113855555418729,0.0225953104454909,-0.0354067483876786,0.0161199203390735,-0.020626161151533,-0.0305367007963596,0.00135081436428007,0.0139149996080679,0.00685603702232353,-0.0339357013823139,0.0228351828818638,0.00660028112991532,-0.0326177542871411,0.0186572072121615,-0.0595646780427187,-0.00754822264365128,-0.0188360420313337,-0.0030491104348753,-0.00223872759433246,-0.00652197372085247,-0.0245529505726771,-0.00396848006760607,-0.0222999495109237,0.0249610128320406,-0.0251902556215187,0.00716742352962842,0.0122885127626354
126,-0.0340791829897845,-0.035367148855424,0.0298918123109206,0.0094956110842954,0.0223004393661554,-0.0342971673891444,0.0176473405708091,-0.0209329731180173,-0.0292642821052939,0.00146965555611219,0.012387298866762,0.0063848154876803,-0.0341211440798457,0.0239190031286116,0.00810223516546372,-0.0335928046891819,0.0182180319480706,-0.0581876809754038,-0.00877606475724098,-0.0189006273423584,-0.00313381702210234,-0.00112369764770031,-0.00590921091935159,-0.0240120359035049,-0.0048160230225977,-0.0217192821567843,0.0255295951766258,-0.023302974557537,0.00698061933298232,0.0111250321765622
127,-0.034074084042463,-0.0352677414496438,0.0306388838849514,0.00776198478068507,0.0219175618816326,-0.0331654128959156,0.0191684496915043,-0.0212550833266831,-0.0279910585282256,0.00170456318544943,0.0107782291403961,0.0058647758056479,-0.0343103235328967,0.0249493867093789,0.00957022397022336,-0.0345662511913016,0.0178161765221387,-0.0567260886931649,-0.0100356485073839,-0.0189341542641752,-0.00321504130544072,7.25306911419678E-06,-0.00522367029768537,-0.0233295278963885,-0.0055776010432288,-0.0211134980541296,0.0260639203941278,-0.0213831184667344,0.00677661456362971,0.0100165238239415
128,-0.0339762148660117,-0.0351350745585289,0.0313520388796175,0.00619332451944327,0.0214459904687964,-0.0320163833709687,0.0206757773470268,-0.0215925427199648,-0.0267191773970824,0.002045547882524,0.00909701667045176,0.00529459778148848,-0.03450543333624,0.0259224415483431,0.0109994784074065,-0.0355352768369614,0.0174435513526424,-0.0551824736796861,-0.0113232016632128,-0.018935739643241,-0.00329672595528614,0.00114626186244123,-0.00447029000876751,-0.0225045532387805,-0.00624765299777947,-0.0204825340748849,0.0265640216142936,-0.0194368681593182,0.00655393796984128,0.00896423455614354
129,-0.0337867955246016,-0.0349714600790788,0.0320327311552084,0.0047969280999224,0.0208852593109963,-0.0308549231436881,0.0221616605876862,-0.0219447706589453,-0.0254501321459787,0.00248170233156579,0.00735383291652561,0.0046725436073625,-0.0347085990377408,0.0268344324477694,0.0123857853845979,-0.0364970391597736,0.0170917641713899,-0.0535595596873301,-0.012634505828591,-0.0189049160420049,-0.00338278168963551,0.00228523244441026,-0.00365392416633612,-0.0215374416404324,-0.00682077600439359,-0.0198263835317206,0.0270297357841449,-0.0174702233682995,0.00631156668419068,0.0079686858130037
130,-0.0335078661506799,-0.034779740852019,0.0326822971816957,0.00357867288530365,0.020235199462292,-0.0296857920009984,0.0236183086786921,-0.0223105846959198,-0.0241847918267276,0.00300135647336621,0.00555969713205111,0.003996520879371,-0.0349218414487356,0.0276817858916527,0.0137255504975489,-0.0374486366370776,0.0167522728975828,-0.0518601828526035,-0.013964911408902,-0.0188416562824186,-0.00347701685469792,0.00341591553825038,-0.0027792611256598,-0.0204297703268057,-0.00729175025928019,-0.0191451300544966,0.027460681499465,-0.0154889348802068,0.00604897843557005,0.00702968016814533
131,-0.0331422438618209,-0.0345632376463997,0.0333019275417334,0.0025429638827651,0.0194960145072854,-0.0285136357107118,0.0250378716425974,-0.0226882380163543,-0.0229234435430252,0.00359224338366826,0.00372636350780915,0.00326415678229419,-0.0351470398188892,0.0284610961477859,0.0150158503157333,-0.0383870723577679,0.0164165432833034,-0.0500872557970684,-0.0153093589722912,-0.0187463890344621,-0.00358307038997985,0.0045299908124872,-0.00185074795192548,-0.0191843917603862,-0.0076555622298981,-0.0184389812817992,0.0278562438053384,-0.0134984396127577,0.00576619593825679,0.00614632156746436
132,-0.0326934673632307,-0.0343256869497779,0.0338926407856664,0.00169270090687272,0.0186683547452119,-0.0273429576410218,0.0264125117033222,-0.0230754635577993,-0.0216658470406328,0.00424167311179123,0.00186619467865192,0.00247288177639031,-0.0353858950046386,0.0291691333976752,0.0162544731027819,-0.0393092158971101,0.0160762089809237,-0.0482437355727801,-0.0166624067899711,-0.018620004362372,-0.00370434944800883,0.00561914886610766,-0.000872522448396225,-0.0178054434808157,-0.00790742632081108,-0.0177083014461587,0.0282155668866537,-0.0115037996039316,0.0054638223615958,0.00531704916691259
133,-0.0321657303419862,-0.0340711708753732,0.0344552600574546,0.00102926514587771,0.0177533879462233,-0.0261780916627348,0.0277344767630002,-0.0234695237166335,-0.0204113004583963,0.00493671161336263,-7.97633022669839E-06,0.00162002093339473,-0.0356398928030163,0.0298028545603335,0.0174399470083072,-0.0402117644974156,0.0157232316153824,-0.0463325961695787,-0.0180182642291304,-0.0184638483442446,-0.00384397277064089,0.00667517200618723,0.000151645985285432,-0.0162983392192652,-0.00804280522598009,-0.0169536418988044,0.0285375554101819,-0.00950964584312965,0.0051430669053593,0.00453968436850676
134,-0.0315638049666544,-0.0338040406575752,0.0349903929381396,0.000552525111030036,0.0167528647887556,-0.025023176538199,0.0289961750136206,-0.0238672644816915,-0.0191587160188718,0.00566436181639717,-0.00188299340964738,0.000702890921735697,-0.0359102676749898,0.0303594173830943,0.0185715550305295,-0.0410912047393506,0.0153500584097868,-0.0443568061362971,-0.0193708305720151,-0.0182797061243772,-0.00400472073532504,0.0076900126090219,0.00121840552605617,-0.0146697407334254,-0.00805742927243461,-0.0161757686109867,0.0288208850930405,-0.00752012782551366,0.00480575965034133,0.00381149035371924
135,-0.0308929569818703,-0.033528835329066,0.0354984149698538,0.000260861612434809,0.0156691771877418,-0.023882132009109,0.0301902497651129,-0.0242651727877963,-0.0179067042229765,0.00641174382218212,-0.00374553143975256,-0.000281099462332371,-0.0361979671386498,0.0308361982530343,0.0196493363261534,-0.0419437759500904,0.0149497749131332,-0.0423193116851181,-0.0207137387475572,-0.0180697730347914,-0.00418899278260579,0.0086558679350115,0.00232486015656623,-0.0129275101237218,-0.00794731512992165,-0.0153756857055859,0.029064022861534,-0.00553886964416941,0.00445435501996017,0.00312924312909382
136,-0.0301588540287483,-0.0332501972556799,0.0359794573219492,0.000151211077097712,0.0145054078618648,-0.0227586367915241,0.0313096535607599,-0.0246594358621499,-0.0166536649162432,0.0071662712610385,-0.00558225452248995,-0.00133434737798934,-0.0365036171670839,0.0312308140400473,0.0206740737303764,-0.0427654366275655,0.0145162504154022,-0.0402230254549812,-0.0220404033884863,-0.0178366137244842,-0.00439877272682746,0.00956525037426288,0.00346859617108876,-0.0110806427253938,-0.00770878430422501,-0.0145546541156908,0.0292652567347665,-0.00356893335114412,0.00409192337498988,0.00248931283656118
137,-0.0293674689266678,-0.0329727862489534,0.0364333990368126,0.000219126211075034,0.0132653696611443,-0.0216561086692037,0.0323477206507794,-0.0250460013421114,-0.0153978834203814,0.00791582089650944,-0.0073799756998509,-0.00245895480734295,-0.0368274889740995,0.0315411481214783,0.0216472676414762,-0.0435518351614551,0.0140442737087728,-0.0380708209137965,-0.0233440725679814,-0.0175831095529159,-0.00463560224115231,0.0104110522304743,0.00464769640486993,-0.0091391810208455,-0.0073384818454803,-0.0137142045361219,0.0294227353259672,-0.00161279021819998,0.00372213046808819,0.00188775384546809
138,-0.0285249797188406,-0.0327011939816412,0.0368598642438555,0.000458852713668899,0.0119536333805938,-0.020577686846258,0.0332982369070137,-0.0254206369735882,-0.0141376297775961,0.00864889269767926,-0.00912581547510047,-0.00365663033917616,-0.0371694676101084,0.031765380563455,0.0225710967170613,-0.0442982860993076,0.013529676964906,-0.0358655321882097,-0.0246178825265032,-0.0173123948283281,-0.00490056260082262,0.011186604300349,0.00586074188535996,-0.00711411037718821,-0.00683339568637535,-0.0128561439287871,0.0295345166089811,0.000327699587314827,0.00334920470501821,0.0013204019385272
139,-0.0276376683126718,-0.0324398603990296,0.0372582246559971,0.000863420483475908,0.0105755430175384,-0.0195262166791516,0.0341555062872735,-0.0257789887545009,-0.0128712590401758,0.00935475777558295,-0.0108073565001563,-0.00492859591717863,-0.0375290228191071,0.0319020222510891,0.023448366118462,-0.0449997531394073,0.0129694456477505,-0.0336099589315311,-0.0258549146724646,-0.0170277827915059,-0.00519426457000539,0.0118857276691904,0.00710680087367513,-0.00501723777888042,-0.00619087698003449,-0.0119825549619127,0.0295986253556918,0.00225129852459371,0.00297789239195268,0.000782976732688571
140,-0.026711819536589,-0.0321929937496432,0.0376276075657648,0.00142474752043796,0.00913721768484221,-0.0185042368592872,0.0349144129980275,-0.0261166364669182,-0.0115973104571854,0.0100235918031989,-0.0124127918909626,-0.00627550047364732,-0.0379051826260422,0.0319499525742863,0.0242824443210597,-0.0456508399311763,0.0123618125693483,-0.0313068756823004,-0.0270482541303821,-0.0167326825513856,-0.00551684613238478,0.0125027783149664,0.00838540554279613,-0.0028610550871424,-0.00540866173654156,-0.0110957879045274,0.0296131184190826,0.00415739415144171,0.00261340138846481,0.000271187340867532
141,-0.0257536223888937,-0.0319644957544631,0.0379669094417815,0.00213375453172679,0.00764553966429237,-0.0175139690641249,0.0355704785591995,-0.026429145643685,-0.0103146033661207,0.010646591806055,-0.0139310647796601,-0.00769734220253932,-0.0382965101333534,0.0319084600939338,0.0250771897760444,-0.0462457896304383,0.0117063344222648,-0.0289590450338377,-0.0281910491167299,-0.0164305084608598,-0.00586797759875651,0.0130326842876758,0.00969651681425007,-0.000658588707168021,-0.00448489396423783,-0.0101984446583619,0.0295761568213398,0.00604599244423772,0.00226133382822206,-0.000219160816052128
142,-0.0247690751733427,-0.0317578932965043,0.0382748150963073,0.00298048809872632,0.00610812836754614,-0.0165573100404353,0.036119913044405,-0.0267121151394908,-0.00902232759232239,0.0112160745179222,-0.0153519969010447,-0.00919340102345819,-0.0387010840080059,0.0317772854406513,0.0258368689570123,-0.0467784939930258,0.0110039493851975,-0.0265692338334722,-0.0292765704453463,-0.0161245836709776,-0.00624687348111025,0.0134709754032513,0.0110404781362257,0.00157676212930581,-0.00341815041128025,-0.00929335478620017,0.0294860834100756,0.00791770201374625,0.00192760880792738,-0.000692060193071094
143,-0.0237638961035607,-0.0315762778463247,0.038549822257347,0.00395425016252788,0.00453330025988823,-0.015635826030975,0.0365596598527167,-0.0269612196206084,-0.00772012619502485,0.0117255548380812,-0.0166664042333236,-0.0107621825562935,-0.039116483137324,0.0315566655408875,0.0265660675463524,-0.0472425125989431,0.0102570146955006,-0.0241402315613863,-0.0302982704983547,-0.0158180398130621,-0.00665231040684136,0.0138138055566772,0.0124179592233647,0.00383139596571081,-0.00220746687865819,-0.00838354358477779,0.029341504670173,0.00977370941583562,0.0016183761736242,-0.00115119845916509
144,-0.0227434408176818,-0.031422253648852,0.0387902712420077,0.00504373153880214,0.0029300150883903,-0.0147507494083371,0.0368874334619421,-0.0271722464495208,-0.00640816847815793,0.0121698032964056,-0.0178661979612205,-0.0124013746712289,-0.0395397759238032,0.0312473781283049,0.0272695967047855,-0.047631102584226,0.00946932340998842,-0.0216748700034159,-0.031249841041972,-0.0155137149268124,-0.00708265026314974,0.0140579679129407,0.0138298909841744,0.00609168585768068,-0.000852365942021681,-0.00747219244720337,0.0291413751250719,0.0116157459059041,0.00133992274647021,-0.00159986111499738
145,-0.0217126280800003,-0.0312978954891051,0.0389943792984727,0.0062371471793524,0.00130780903533511,-0.0139029773391611,0.0371017497159104,-0.0273411266169396,-0.00508721130790773,0.0125448818216728,-0.0189444692952872,-0.0141078174075786,-0.0399675146749369,0.0308507853868234,0.0279523965161606,-0.0479372590230754,0.00864609992826217,-0.0191760433277071,-0.0321252693158508,-0.0152140518759047,-0.00753586771369493,0.0142009033726218,0.0152773930311901,0.00834415930101013,0.000647114219889911,-0.00656259195989608,0.0288850826309882,0.0134460461321924,0.00109857252252778,-0.00204084143628338
146,-0.0206758747622169,-0.0312047166358039,0.0391602790681826,0.00752237095413997,-0.000323284315087828,-0.0130930722698825,0.0372019483067963,-0.0274639595598769,-0.00375864694780912,0.0128481575076191,-0.0198955569581453,-0.0158774867744878,-0.040395735522132,0.0303688754891748,0.0286194388028737,-0.0481537658538808,0.00779397422436996,-0.0166467276979223,-0.0329188918765115,-0.0149209995701669,-0.00800958121884786,0.0142407028274654,0.0167616952996898,0.0105756782705115,0.00229039033418884,-0.00565808837723169,0.0285725327629022,0.0152672994043348,0.000900582548712996,-0.00247635966327569
147,-0.019637040997435,-0.0311436473392396,0.0392860605218245,0.00888706782945033,-0.00195282405877405,-0.0123212640027311,0.0371882072255935,-0.0275370318949253,-0.00242453583434292,0.0130782944703448,-0.0207150964307458,-0.0177054926641135,-0.0408199642708925,0.0298043007439601,0.0292756315605509,-0.0482732569853718,0.00692093511489759,-0.0140899996004321,-0.0336254457272493,-0.0146359193451759,-0.00850108671686388,0.0141761038167794,0.0182840553937828,0.0127736162178982,0.00407630446472914,-0.00476202430840805,0.028204230415241,0.0170825943074864,0.000752036316027422,-0.00290799318670433
148,-0.0185993861897381,-0.0311150240390559,0.039369815644832,0.0103188214599859,-0.0035700617366792,-0.0115874531182275,0.0370615490673047,-0.0275568302843697,-0.00108762296847845,0.0132352242801972,-0.0214000503349017,-0.019586090830782,-0.041235228540948,0.0291604110464193,0.0299257272612479,-0.0482882869601844,0.00603626327527772,-0.011509052123748,-0.0342401163167813,-0.0143594988366029,-0.00900739318301959,0.0140064822652737,0.0198456733372474,0.0149260288702634,0.00600309508537852,-0.0038776746304861,0.0277813566964364,0.0188953575568252,0.000658736618157334,-0.00333661926890053
149,-0.017565536345337,-0.0311185892234994,0.0394096850908906,0.0118052553903398,-0.00516404921719326,-0.010891215498089,0.0368238391900677,-0.027520048832391,0.000248663113118009,0.013320095822861,-0.0219487196082134,-0.0215127086252146,-0.0416360764991089,0.0284412813436742,0.0305742372217402,-0.0481914103000866,0.0051504450906983,-0.00890720849980626,-0.0347585820359074,-0.014091675628352,-0.00952525937200222,0.0137318400253488,0.021447605435343,0.0170218157289932,0.00806836964273035,-0.00300817880448154,0.0273058391881563,0.0207092880994689,0.000626099895250551,-0.00376237159008571
150,-0.0165374629724707,-0.0311535016777351,0.0394039059848821,0.0133341462706245,-0.00672375296314179,-0.010231807710113,0.0364777758368953,-0.0274235915727288,0.00158022950459945,0.0133352057913821,-0.0223607354005355,-0.0234779839284601,-0.0420166024195956,0.0276517318734281,0.0312253541287143,-0.0479752684176063,0.00427506878221792,-0.00628793229419334,-0.0351770548855467,-0.0138315728509724,-0.0100512311587255,0.0133527889614242,0.0230906789582758,0.0190508692903471,0.0102690795669808,-0.00215647091368395,0.0267804136696182,0.0225282875680057,0.000659054116146873,-0.00418461162918097
151,-0.015516473581109,-0.0312183566675367,0.0393508600386242,0.0148935277284753,-0.00823817281964552,-0.00960817303395116,0.0360268724321097,-0.0272645707516516,0.00290235660875542,0.0132839113281762,-0.0226370318845937,-0.0254738165121392,-0.0423704792275545,0.026797340014702,0.0318828846583631,-0.0476326827600187,0.00342270457126927,-0.00365483371331877,-0.0354923170312207,-0.0135774487603792,-0.0105816790163628,0.0128705323016227,0.0247754093419788,0.0210042091910123,0.0126014987795316,-0.00132520886161001,0.0262086754768608,0.0243563882690762,0.000761942244924553,-0.00460191558192879
152,-0.0145032136045941,-0.0313112154281014,0.0392491211422047,0.0164717838011956,-0.00969646336576132,-0.00901894793314711,0.0354754323587268,-0.027040301725909,0.00420975433721231,0.0131705266199233,-0.0227798004257687,-0.0274914308649656,-0.0426909980931259,0.0258844426984112,0.0325501939271857,-0.0471567526599185,0.00260677092628153,-0.00101167158014072,-0.0357017529990788,-0.0133266621371524,-0.0111128352993979,0.0122868439452861,0.0265019215711034,0.0228740987216411,0.0150612068065589,-0.00051670425825765,0.0255951187772864,0.0261976799491933,0.000938433287495451,-0.00501207719317484
153,-0.0134976793679477,-0.031429643167899,0.039097501608925,0.0180577311120223,-0.0110880558167704,-0.00846246881346486,0.034828516605075,-0.0267482953807512,0.00549663646996445,0.0130002054954985,-0.0227924257971969,-0.0295214493732163,-0.042971115047658,0.0249201284623147,0.0332301632669963,-0.0465409562072933,0.00184138916506998,0.00163764938286875,-0.0358033773073469,-0.0130756551143948,-0.0116408311256012,0.0116040463569273,0.0282698773647213,0.0246541414448225,0.0176430776325855,0.000267145414957518,0.0249451621915878,0.0280562366161725,0.00119144282044885,-0.00541212654212061
154,-0.0124992415453571,-0.0315707546564779,0.0388950962806431,0.0196406892660909,-0.0124027784435184,-0.00793677894898192,0.0340919047367774,-0.0263862490257164,0.00675681243332031,0.0127788122850483,-0.0226794053569699,-0.0315539746258157,-0.043203504492186,0.0239122183964914,0.0339251625336176,-0.045779252335839,0.00114122885950542,0.00428908623272686,-0.0357958573645838,-0.0128199547685928,-0.0121617327662802,0.010824987602792,0.0300784097274736,0.0263393559961941,0.0203412754119215,0.00102492074154374,0.0242651593880928,0.0299360447066243,0.0015230647681026,-0.00579836447736686
155,-0.0115066783852588,-0.0317312663451703,0.0386413237400061,0.0212105392358755,-0.0136309734884045,-0.00743963550383477,0.0332720497032953,-0.0259520367445188,0.00798379538233156,0.0125127833646731,-0.0224462523254682,-0.0335786795322941,-0.0433806193624568,0.0228692354087475,0.0346370378391798,-0.044866182235543,0.000521346600457338,0.00693847061786398,-0.0356785315016747,-0.0125541944950364,-0.0126715775522047,0.009953018000221,0.0319260663563702,0.0279262275325156,0.0231492580960771,0.00175573879254423,0.0235623935075967,0.0318409338769456,0.00193451601694542,-0.00616641206152424
156,-0.0105182178374242,-0.0319075538725324,0.0383359639239726,0.0227577697932065,-0.0147636086028837,-0.00696851662667367,0.0323760270274164,-0.0254437001597855,0.00917092511435758,0.0122089819342756,-0.0220993845136293,-0.0355849038925526,-0.0434947576053488,0.021800361440412,0.0353671152468563,-0.0437969681682105,-2.97927153059714E-06,0.00958152678974738,-0.0354514220370144,-0.012272155839924,-0.0131664093781464,0.00899196675740396,0.0338107633034106,0.0294127347117601,0.0260597899319858,0.00245930446282258,0.0228450545479398,0.0337745116564728,0.00242609524303961,-0.00651127406224476
157,-0.0095315875934645,-0.032095713733326,0.0379791914870088,0.0242735123163437,-0.0157923809074972,-0.00652062864434013,0.0314114789533386,-0.0248594405241903,0.0103115040028796,0.0118745486552005,-0.0216460000574446,-0.037561756039306,-0.0435381345088457,0.0207153824775967,0.0361162205898217,-0.0425676077755892,-0.000416415382104862,0.0122138947728898,-0.035115243302597,-0.0119668310793148,-0.0136423139386485,0.00794611888621111,0.0357297501833573,0.0307983515403068,0.0290649636418007,0.00313595323058854,0.0221221991437566,0.0357401031365384,0.00299715708266255,-0.00682741522639705
158,-0.00854407195034715,-0.0322916278413605,0.0375716043213565,0.0257495645480075,-0.0167098118811798,-0.00609291342836419,0.0303865541466199,-0.0241976129681122,0.0113989438321804,0.0115167508094942,-0.0210939419093343,-0.0394982181853936,-0.0435029603118017,0.0196246214270902,0.0368847151799899,-0.0411749620322889,-0.000703738980133396,0.0148311585433607,-0.0346714045817484,-0.0116305064259776,-0.0140954538497721,0.00682019257685034,0.0376795880812398,0.0320840238931748,0.0321562329148001,0.00378668397298735,0.0214036925134763,0.0377406967780184,0.00364610250585369,-0.00710884780416995
159,-0.00755257432548676,-0.0324910296923567,0.0371142467059769,0.0271784040971628,-0.0175093314198116,-0.00568205604986368,0.0293098435491123,-0.0234567236227487,0.012426921139732,0.0111428326348509,-0.02045155302089,-0.0413832541465094,-0.0433815224007132,0.0185388591561097,0.0376725467647598,-0.0396168351065965,-0.000850000174420541,0.0174288789608966,-0.0341220079265818,-0.0112548653156097,-0.0145221038056219,0.00561931713210982,0.039656141153282,0.0332721209962414,0.0353244556314475,0.00441318063452506,0.0207001327068747,0.0397788973030397,0.00437038596351755,-0.00734922855585359
160,-0.00655368419133459,-0.0326895708325545,0.0366086266260414,0.028553192658527,-0.0181853495614734,-0.00528449287275645,0.028190312995115,-0.0226354302003226,0.0133895384383954,0.0107598694398446,-0.0197275243196637,-0.0432059181719719,-0.043166271279117,0.017469244228671,0.0384793146810525,-0.0378920445478022,-0.000840678587670543,0.0200026311017567,-0.0334698408351875,-0.0108311107815041,-0.0149186858846886,0.00434901147173136,0.0416545827270931,0.0343663626451586,0.0385599480051963,0.00501782174710957,0.0200227576649153,0.0418568864950673,0.0051665395778995,-0.0075419632800116
161,-0.00554374715686898,-0.0328828863611784,0.0360567268818718,0.0298677720654888,-0.0187333145535553,-0.00489642025979091,0.0270372331916363,-0.0217325464546539,0.0142814884982659,0.01037462801417,-0.0189307377293149,-0.0449554636971814,-0.042849909372228,0.0164271921069316,0.0393043477562969,-0.0360004804127125,-0.000661832509669517,0.022548045550839,-0.0327183637760604,-0.0103501054796687,-0.0152818050602611,0.0030151631339524,0.0436694164927608,0.0353717234144333,0.0418525495751973,0.00560367703571295,0.0193833359905471,0.043976392567738,0.00603021433906426,-0.00768031675057854
162,-0.00451893690295664,-0.0330666582389681,0.0354610096899247,0.0311166533920134,-0.0191497561305352,-0.00451380407942433,0.0258601076557536,-0.0207470507720089,0.0150982187213935,0.00999343571954454,-0.0180701066004604,-0.0466214509251755,-0.0424254816068491,0.0154242748227774,0.0401467931277329,-0.033943152169047,-0.000300238908915476,0.0250608531329417,-0.0318716925516862,-0.0098025274828786,-0.0156082848828343,0.0016240076210856,0.0456945131380497,0.0362943155721247,0.0451916987180425,0.00617449060555181,0.0187940427146078,0.046138668579533,0.00695623796054532,-0.00775752584409736
163,-0.00347532767824558,-0.0332366752392786,0.0348244145677294,0.0322950003763733,-0.0194323130772596,-0.00413239020350591,0.0246685991856409,-0.019678098960396,0.0158360925448721,0.00962206047998442,-0.0171544160018451,-0.0481938522439545,-0.0418864665868295,0.0144721023623431,0.0410057138068529,-0.0317222224610511,0.000256477041827466,0.0275369324938862,-0.0309345754959202,-0.00917903953028195,-0.0158952031929916,0.000182107859169533,0.0477231625217993,0.0371412528514661,0.048566518074083,0.00673465048776513,0.0182673217144148,0.0483444801724191,0.00793868873874406,-0.00776691357818854
164,-0.00240896608193763,-0.0333888884607428,0.0341503493880684,0.0333986084549789,-0.0195797443681947,-0.00374771617620848,0.0234724554195857,-0.0185250411217649,0.0164925447620005,0.00926560368720637,-0.0161921653620382,-0.049663154583412,-0.0412268670703001,0.0135821972422562,0.0418801925168125,-0.0293410270846078,0.00101972396919914,0.0299723598813835,-0.0299123655017891,-0.00847046900695393,-0.0161399275944013,-0.00130366653077125,0.0497481412048631,0.0379204976315841,0.0519659090090031,0.00728914461322971,0.0178157367932253,0.0505941027024254,0.00897098445612584,-0.007702001769069
165,-0.00131594089895673,-0.0335194614186429,0.0334426745836789,0.034423880670738,-0.019591923396448,-0.0033551242143033,0.0222814340108665,-0.0172874423115167,0.0170662276596076,0.00892840780071768,-0.0151914159471278,-0.0510204579037266,-0.0404412983498046,0.0127658639876099,0.0427694390877624,-0.0268040807875148,0.00199983858169195,0.0323634604220343,-0.0288109868780101,-0.00766799554319932,-0.0163401502735889,-0.00282616051808349,0.0517617948740491,0.0386406944370576,0.0553786539607249,0.00784350358118119,0.0174518137462892,0.0528873276138649,0.0100459850720063,-0.00755662004939701
166,-0.000192449810654154,-0.0336248138430462,0.0327056805812305,0.0353678016614561,-0.0194698150357434,-0.00294977566856614,0.0211052279183432,-0.0159651065179708,0.0175571449330122,0.00861398015671287,-0.0141596456090246,-0.0522575690801029,-0.0395250730438325,0.0120340554423643,0.0436728985172548,-0.0241170687778777,0.003205992706202,0.0347068601444113,-0.0276368970336725,-0.00676334277452429,-0.0164939216027242,-0.00437795592799661,0.0537561349092693,0.0393109929725521,0.0587935252634249,0.0084037308841105,0.0171878760144183,0.0552234776922838,0.0111561076625509,-0.00732500906694407
167,0.000965138121256165,-0.0337016584324861,0.0319440586414827,0.0362279108454239,-0.0192154355120599,-0.00252666703697318,0.0199533912864708,-0.0145581033346518,0.0179667704574636,0.00832493421021777,-0.0131036131436436,-0.0533670905027015,-0.0384742807318918,0.0113972380454637,0.0445903566975331,-0.0212868240822292,0.00464611330927952,0.0369995379592654,-0.0263970429906812,-0.00574897049831657,-0.0165996818115198,-0.00595139515108473,0.0557229480659215,0.039940864157139,0.0621993988039484,0.00897622153698566,0.0170358767508122,0.0576014306202923,0.0122934518108013,-0.00700191580777027
168,0.00216022521032726,-0.0337470299399165,0.0311628653806189,0.0370022758100529,-0.0188317952967312,-0.00208064757391226,0.0188352663680224,-0.0130667965535728,0.018298149163798,0.00806294912662732,-0.012029234461647,-0.0543425027432661,-0.0372858608090039,0.0108652583816429,0.0455220407842351,-0.0183212911372545,0.00632681552685611,0.0392388767776698,-0.0250988127223603,-0.00461826321075171,-0.0166562898725034,-0.00753860678093202,0.0576539179817139,0.0405399128070482,0.0655853706612268,0.00956767033171348,0.0170072302943092,0.0600196500613536,0.0134499334161484,-0.00658267915209311
169,0.00339593405122445,-0.0337583061008474,0.0303674813450676,0.0376894667819659,-0.0183228254660659,-0.00160643848799521,0.0177599119318753,-0.0114918737809494,0.0185559774830686,0.00782874831742121,-0.0109414726004182,-0.0551782406510796,-0.0359576669032462,0.0104472134556679,0.0464687112351616,-0.0152294762172325,0.00825334856331696,0.0414227129277223,-0.0237499813143244,-0.00336571081557297,-0.0166630486181389,-0.00913153366070232,0.0595407569769704,0.0411176907305173,0.0689408747157836,0.0101849711918435,0.0171126461461252,0.0624762233153419,0.0146174246984703,-0.00606330397355234
170,0.00467506337425578,-0.0337332200507217,0.0295635641078994,0.0382885329195101,-0.0176932882001087,-0.00109865366695482,0.0167360335999415,-0.00983437607070836,0.0187466610864837,0.0076220971852743,-0.00984424339812153,-0.0558697622319339,-0.0344885211955198,0.0101513272344812,0.047431742683722,-0.0120213854868793,0.0104295542045615,0.043549383021643,-0.022358651941464,-0.00198707717313832,-0.0166197250053788,-0.010721963788649,0.0613753464053598,0.0416835140402474,0.0722557991015723,0.0108351093331511,0.0173619685820229,0.0649689044317749,0.0157878980217006,-0.00544052232904824
171,0.0060000515275914,-0.0336698640189529,0.0287569964483231,0.0387989810261418,-0.0169486723112015,-0.000551821814822589,0.0157719165737095,-0.00809572648830734,0.0188783479497464,0.00744182000989329,-0.00874033841209039,-0.0564136096378548,-0.0328782570077454,0.00998483604700789,0.0484131910268622,-0.00870795162160569,0.012857837619186,0.0456177674290547,-0.0209331916545226,-0.000479552110913916,-0.0165265643689457,-0.012301564473143,0.0631498836310896,0.0422462884549573,0.0755205993111308,0.0115250481385752,0.017764024993296,0.0674951615371463,0.0169535710594488,-0.00471184055199988
172,0.00737294814218943,-0.0335666842300565,0.0279538302658742,0.0392207571388251,-0.0160950748984436,3.95901623629146E-05,0.0148753612422009,-0.0062777564599998,0.0189609351118011,0.00728583557083506,-0.00763136639670903,-0.0568074615567294,-0.0311277480875998,0.00995388542188001,0.0494158443966173,-0.00530095005225041,0.0155391500925719,0.0476273295304215,-0.0194821619733213,0.00115811744791256,-0.0163842974634546,-0.0138619200394485,0.0648570335595026,0.0428143462497973,0.0787264057596071,0.012261612827015,0.0183264859352125,0.0700522270362905,0.018107050773957,-0.00387557135122863
173,0.00879539440852935,-0.0334224670872028,0.027160226966186,0.0395542313011729,-0.0151390704150528,0.000681152727228262,0.0140536222076189,-0.00438272873273242,0.019006047874356,0.00715121077036411,-0.00651771436237651,-0.0570501762451488,-0.0292389231178128,0.0100634408768227,0.0504432560413341,-0.00181290596933635,0.0184729833432741,0.0495781499587633,-0.0180142442928735,0.00292552145715401,-0.0161941390897954,-0.0153945732747525,0.0664900825291199,0.0433952983251206,0.0818651236638485,0.0130513731310993,0.0190557396705354,0.0726371492883692,0.0192414736797474,-0.00293085032460559
174,0.0102686122685895,-0.033236316859025,0.0263823951339125,0.0398001856873035,-0.014087568611353,0.00137844847332405,0.0133133513186958,-0.00241335576914262,0.0190269905978569,0.00703423119196531,-0.00539852891938377,-0.0571418244008093,-0.0272147641186537,0.0103172150494618,0.0514997575597046,0.00174300673566411,0.0216573751012154,0.0514709550895511,-0.0165381601243224,0.00482050982455082,-0.0159577771355739,-0.0168910706579635,0.068043092281513,0.0439959045949214,0.0849295231987577,0.0139005272962082,0.0199567837315525,0.0752468443398218,0.0203506399141434,-0.00187763661463552
175,0.0117934027025992,-0.0330076252348052,0.0256265263782362,0.0399598060999702,-0.0129476629770987,0.00213704633113303,0.0126605453591889,-0.000372812432401278,0.0190386686894647,0.00693048721376857,-0.00427171827206098,-0.0570837110292515,-0.0250592875956654,0.0107176133787541,0.0525904514000676,0.00535307340583658,0.0250889256744982,0.0533071391091116,-0.0150625862150898,0.00683914828382461,-0.0156773509349292,-0.0183430112611406,0.0695110516575821,0.0446219655526049,0.0879133180536332,0.0148147897693919,0.0210331356934424,0.0778781463231064,0.0214291387371082,-0.000716697755702547
176,0.0133701531685666,-0.0327360332539245,0.0248987302951689,0.0400346767269443,-0.0117264714542969,0.0029624754719831,0.0121004990936104,0.00173525812139015,0.019057481846598,0.00683497399776535,-0.00313397487451974,-0.0568783854301117,-0.0227775075121838,0.0112657003108412,0.0537211820499938,0.00900315226810848,0.0287628252887364,0.0550887790804539,-0.0135960646219143,0.00897571034482315,-0.0153554179712853,-0.019742099036088,0.0708900236221086,0.0452782374574011,0.0908112307252049,0.0157992849605525,0.0222867649649847,0.0805278552040676,0.0224724632310313,0.000550420916792894
177,0.0149988541331402,-0.0324213862499928,0.0242049695363686,0.0400267779055868,-0.0104309713271265,0.00386019915053098,0.0116377644173841,0.00390674632848631,0.0191011891129349,0.00674220340340193,-0.00198081839655191,-0.0565296384166655,-0.0203753794377583,0.0119611877149723,0.0548984858865411,0.0126787926864331,0.0326728920433062,0.0568186425300306,-0.0121469078470876,0.0112227081023031,-0.0149949081084693,-0.0210801980197666,0.0721772851911875,0.0459683731067679,0.0936190431494843,0.0168584494276932,0.0237180469726914,0.0831927806831106,0.0234771121656741,0.00192144161328379
178,0.0166791245140991,-0.0320636825753535,0.0235509960045847,0.0399384865208071,-0.00906783032042999,0.00483558869825564,0.0112761163879236,0.00613708673382095,0.0191887468185851,0.00664632563656469,-0.000806658284801744,-0.0560424858948264,-0.0178597255379527,0.0128024468564458,0.056129520223612,0.0163653569887401,0.036811620386981,0.0585001871961051,-0.0107230991934395,0.0135709640908911,-0.0145990647407578,-0.0223493898136074,0.0733714578291703,0.046694889627753,0.096333631587029,0.0179959447615485,0.0253257406564357,0.0858697812237591,0.0244406772326475,0.00339341321402624
179,0.0184102457367988,-0.0316630169842754,0.0229422892095673,0.0397725785503852,-0.00764323605351335,0.00589389783934897,0.0110185269213817,0.00842127782531999,0.0193401210066474,0.00654125825065632,0.00039512515117542,-0.0554231379686289,-0.0152381404252891,0.0137865448868028,0.0574219726656516,0.020048144938587,0.0411702400652194,0.0601375527053786,-0.00933218854953185,0.016009725696474,-0.0141713724986057,-0.0235420325226606,0.0744726258944625,0.0474591641442836,0.0989529850284011,0.0192145833212179,0.0271069897241765,0.0885557973907464,0.0253619141347524,0.00496278291624614
180,0.0201912039891015,-0.0312195196494561,0.0223839978142847,0.0395322331777747,-0.00616272610188676,0.00704023744918809,0.0108671469232197,0.0107539116739586,0.0195760764859975,0.00642081997326273,0.0016320825372963,-0.054678952812211,-0.0125188782807585,0.0149093063800504,0.0587839524410388,0.0237125200372879,0.0457387855268239,0.0617355440762266,-0.00798118388547842,0.0185268228814706,-0.0137154714298712,-0.0246508201884993,0.0754824407500312,0.0482614575694989,0.101476206768057,0.0205162688013971,0.0290573476451129,0.0912478789193969,0.0262407963337687,0.0066254789029075
181,0.0220207401430467,-0.0307332918628633,0.0218808853791455,0.0392210378187031,-0.00463102101553229,0.00827955081715007,0.0108232975771743,0.0131292136386093,0.0199179451833425,0.00627886674656969,0.00291258184128594,-0.0538183746559471,-0.0097107220739052,0.0161653999723364,0.0602238659272918,0.0273440369616205,0.0505061757923783,0.0632996070824838,-0.00667643882391739,0.0211088691643521,-0.0132350578903933,-0.0256688416216229,0.0764042082195119,0.0491009661447949,0.103903499193256,0.0219019533952378,0.0311708259070462,0.0939432051973606,0.0270785506090399,0.00837700231683245
182,0.0238974066998417,-0.0302043395253514,0.0214372812720501,0.0388429933552628,-0.00305186272699735,0.00961658941278156,0.0108874714460087,0.0155410921414449,0.0203873769824275,0.00610942734734952,0.00424568139243048,-0.0528508553779821,-0.00682283614850039,0.0175484496582209,0.0617502790764161,0.0309285695559552,0.0554603047745524,0.0648357956506225,-0.0054235367512384,0.0237415049257474,-0.0127337727160175,-0.0265896374399317,0.0772429571693933,0.0499758997127685,0.106236132236869,0.0233716130586799,0.0334399646344046,0.0966390991066518,0.027877673949316,0.0102125266461972
183,0.0258196310122396,-0.0296325055579101,0.021057037655854,0.0384025188392715,-0.00142786085401222,0.0110558890902241,0.0110593439391277,0.0179831982483268,0.0210060767198602,0.00590683599605999,0.00564099176347345,-0.0517867593721208,-0.00386460388990262,0.0190511697691054,0.0633717698854613,0.0344524388962308,0.0605881419956771,0.066350731605573,-0.00422717205148849,0.0264096812096595,-0.0122150776035957,-0.0274072540529019,0.0780054871384448,0.0508835850827055,0.108476396337228,0.0249242420877058,0.0358559242649267,0.0993330344369179,0.0286419316807786,0.0121270024898952
184,0.0277857839500904,-0.0290174023702187,0.0207434933943884,0.03790445491379,0.000239650543542127,0.0126017466036938,0.0113377955777981,0.0204489945072145,0.0217955314408176,0.00566585947489796,0.00710852896287691,-0.0506372515777997,-0.000845452637764046,0.0206655221207512,0.0650967744190585,0.0379025410185484,0.0658758435674564,0.0678515572262811,-0.00309102917864862,0.0290979812652798,-0.0116821209941785,-0.028116293297729,0.0787003931231878,0.0518205922383773,0.110627541124026,0.0265578678953098,0.0384085966199588,0.102022637330241,0.0293763371129112,0.0141152655761702
185,0.0297942531050973,-0.0283583455001932,0.020499445636141,0.0373540652056466,0.00195074315770439,0.0142581962508021,0.0117209453399307,0.0229318322152814,0.0227767323907625,0.00538181644923856,0.00865856153803172,-0.0494141688055751,0.00222533155823129,0.0223828932818736,0.0669334301641773,0.0412664739514928,0.0713088731804668,0.0693458812203153,-0.00201766043038411,0.0317909761503697,-0.0111375951204868,-0.0287119564337221,0.0793380658666733,0.0527828805635462,0.112693701398456,0.0282695865256348,0.0410867333795459,0.104705682446345,0.0300871133489029,0.0161721458570059
186,0.0318435195817806,-0.0276542894931635,0.0203271297434367,0.0367570349605849,0.00370700897381485,0.0160289864153378,0.0122061951952589,0.0254250360118555,0.0239698965196837,0.00505068692067867,0.0103014542937259,-0.0481298747689408,0.00533879633313212,0.0241942894009175,0.0688894206724576,0.0445326637053604,0.0768721326990894,0.0708417188746512,-0.0010083634451854,0.0344736098100655,-0.0105835862449677,-0.0291900812335116,0.0799306662880059,0.053765961736761,0.114679812290901,0.0300556190737566,0.0438780896934547,0.10738008474,0.030781638247658,0.0182925754953919
187,0.0339322373927904,-0.0269037670232786,0.0202282081360541,0.0361194662247962,0.00551165657863133,0.0179175557518472,0.0127902857512843,0.0279219944392675,0.0253941924931544,0.0046692100253483,0.0120475113853817,-0.0467970995359656,0.00848651917332271,0.0260905455503541,0.070971825515671,0.0476904888523701,0.0825501017747533,0.0723474272827065,-6.30596114039155E-05,0.0371316081752097,-0.0100214204652931,-0.0295471709727283,0.0804920730296162,0.0547650754904702,0.116591515754461,0.0319113887958623,0.0467695804285876,0.110043887916365,0.0314683738312461,0.0204716936036229
188,0.0360593144648401,-0.0261048321745269,0.0202037685122199,0.0354478689214169,0.00736958671767173,0.0199270087455277,0.013469362724583,0.0304162548862278,0.0270674763307497,0.00423496871881111,0.0139068215544659,-0.0454287644367876,0.0116608036521338,0.0280625461233684,0.0731869795421659,0.0507304032805627,0.0883269856820056,0.0738716366798563,0.000819825253388563,0.0397519060129204,-0.00945150779076043,-0.0297804142123337,0.0810378024832602,0.0557753740563802,0.118435060781163,0.0338316183015382,0.0497474463782957,0.112695250771929,0.0321567816981477,0.0227049456781615
189,0.0382239942617684,-0.0252550086957499,0.0202543317966597,0.0347491472279262,0.00928744469550047,0.022060090395929,0.0142390537360705,0.0329016211362101,0.0290060418193259,0.00374646024799795,0.0158891082357948,-0.0440377937988835,0.014854871767854,0.030101452460713,0.0755403452769402,0.053644056622585,0.0941868703533178,0.0754231790344565,0.00164347642617108,0.042323084530811,-0.00887318748457092,-0.0298876943884481,0.0815849010775182,0.0567921108434525,0.120217199904522,0.0358104458241528,0.0527974276457609,0.115332432734648,0.0328572262246076,0.0249881758088831
190,0.0404259370382212,-0.0243512439243289,0.0203798700448795,0.0340305807304647,0.0112736473801097,0.0243191598130859,0.0150945547084958,0.0353722515923506,0.0312243907700999,0.00320315168965981,0.0180035871850461,-0.0426369152236714,0.0180630482276706,0.0321989336068398,0.0780364020584863,0.0564244117518244,0.100113883344656,0.077011015132476,0.00241280031817809,0.0448358121067965,-0.00828457791205378,-0.0298675883722201,0.0821518100621238,0.0578108287276135,0.121945084671808,0.037841559174678,0.055904941365632,0.117953779981749,0.0335808675112984,0.0273177099148072
191,0.0426652997464143,-0.023389868938283,0.0205798344062513,0.0332997999142714,0.0133383828031839,0.0267061625790249,0.0160307249261422,0.0378227561443837,0.03373502800017,0.002605520221871,0.0202588341515253,-0.0412384504568602,0.0212809324190214,0.0343473959022011,0.0806785551571731,0.05906585860604,0.106092359209219,0.0786441614559646,0.00313452719610935,0.0472832800092857,-0.00768243432276173,-0.0297193533359073,0.0827582035008371,0.058827543279467,0.123626162827208,0.039918345607156,0.0590552609458631,0.120557713531613,0.0343395461589321,0.0296904284703922
192,0.0449428136257414,-0.0223665653485838,0.0208531931184343,0.0325647556461461,0.0154935806469971,0.0292226018128971,0.0170421896069843,0.0402482895840483,0.0365482856197082,0.0019550781782691,0.0226626649580988,-0.0398540992318601,0.0245055538079847,0.0365402070183326,0.0834690676797544,0.0615643234473168,0.112107007496036,0.0803316181852214,0.00381730462262488,0.0496616246055847,-0.00706201811524679,-0.0294429014597289,0.0834248006778454,0.0598389163200401,0.12526807993874,0.0420340554686752,0.0622336940915528,0.123142720671962,0.0351456620336083,0.0321038274306665
193,0.0472598585081676,-0.021276338986029,0.021198479375979,0.0318336824156556,0.0177528522785618,0.0318695079797086,0.0181234486429282,0.0426446394637505,0.0396721807974984,0.00125438330252148,0.025222030149356,-0.0384947187713872,0.027735506611306,0.0387719100377453,0.0864090175412503,0.0639173725027124,0.118143081329342,0.0820822996500228,0.00447177955141096,0.0519703273434252,-0.00641698117924415,-0.0290387622357725,0.0841731546248503,0.0608424153730972,0.126878588123921,0.0441819771807655,0.0654257570071099,0.125707350996858,0.0360120492101726,0.0345560663335222
194,0.0496185328699846,-0.0201135005746437,0.0216138487906365,0.0311150552271826,0.0201313994320316,0.0346474075959724,0.0192689899908166,0.0450083063288554,0.0431123106654805,0.000507034962313216,0.0279429261327614,-0.037170101908531,0.0309710598077607,0.0410384232740759,0.0894982811894306,0.0661243087596152,0.124186544272498,0.0839049685166782,0.00511066694034368,0.0542125837409851,-0.00573926887526261,-0.0285080323683845,0.0850254189769929,0.0618364548714639,0.12846546438047,0.0463556208093996,0.0686173423521222,0.128250218179434,0.0369518492599006,0.0370460028463366
195,0.0520217186523118,-0.0188716533218161,0.0220971460430377,0.030417540175036,0.0226458911478893,0.037556291106939,0.020473406052189,0.0473365743364094,0.0468717874164991,-0.000282342611502867,0.0308303244679803,-0.0358887570272333,0.0342142388836954,0.0433372217198755,0.0927355451110724,0.0681862605220806,0.130224232949016,0.0858081749265486,0.00574880270991004,0.0563956327395368,-0.0050190450931859,-0.0278523135324803,0.0860040958529006,0.062820515368202,0.130036440809582,0.0485489072336013,0.0717948787384702,0.130770008408618,0.0379783849787308,0.0395732133241662
196,0.0544731398597674,-0.0175436872002821,0.0226459802165627,0.0297499388880943,0.0253143091461179,0.0405955803375114,0.0217315112697271,0.0496275704021521,0.0509512159601268,-0.00110812873197516,0.0338881206588543,-0.0346576932161993,0.0374688761404148,0.0456674962976062,0.0961183454480948,0.0701062601786279,0.13624401269851,0.0878002017006932,0.00640317887659894,0.0585310380614096,-0.00424464262887797,-0.0270736385285578,0.0871317679129979,0.063795237494556,0.131599148734952,0.0507563597239144,0.0749454797902121,0.133265496172602,0.0391050365366392,0.0421379992502988
197,0.0569774139317178,-0.016121779554726,0.0232578082041989,0.0291211271971632,0.0281557624321918,0.0437640960519884,0.0230384590985337,0.0518803101933709,0.0553487157422706,-0.00196374476714185,0.0371191034731449,-0.0334822141729782,0.0407406269189522,0.048030287467992,0.0996431353227368,0.0718893114981269,0.142234923403935,0.0898890165982628,0.0070929587346296,0.060634913673453,-0.00340254183212716,-0.0261743866611221,0.0884308181662263,0.0647624879873635,0.133161078377668,0.0529732945969118,0.0780570810332893,0.135735567788893,0.0403451218714813,0.0447413797291273
198,0.059540094867995,-0.0145974015420158,0.0239300254863771,0.0285399885544092,0.0311902725990307,0.0470600262960434,0.0243898564850191,0.0540947295073167,0.0600599875189678,-0.00284170105274918,0.0405249454606079,-0.0323657244799608,0.0440369497112625,0.0504285902089804,0.10330537873297,0.0735424436686524,0.148187312553692,0.092082232467549,0.00783947004506575,0.0627280860801687,-0.00247738011255838,-0.0251571894594112,0.089923141455321,0.065725395769033,0.134729555354974,0.0551960075245935,0.0811185631303193,0.138179252772624,0.0417117829567059,0.0473850704882221
199,0.0621677070872548,-0.0129613298141659,0.0246600634897229,0.0280153429154788,0.0344385319819343,0.0504808963360774,0.0257818740070535,0.0562716998424595,0.0650784250173472,-0.00373365039949271,0.0441062149651363,-0.0313095518958284,0.0473670488165158,0.0528674279049515,0.107099669152318,0.0750747502342412,0.154092952609213,0.0943870759628993,0.00866617431907049,0.064836186956856,-0.00145199444478632,-0.02402482814782,0.0916298518439272,0.0666883567899553,0.136311734840344,0.0574219520503692,0.0841198602194116,0.140595762815585,0.043217879347504,0.0500714501130313
200,0.0648677690090611,-0.0112036627815628,0.0254454926505762,0.0275558719754327,0.0379216375303719,0.0540235411521959,0.0272113498954531,0.0584130272799189,0.0703952705319517,-0.00463044633897002,0.0478624095381159,-0.0303127892604495,0.0507417789565798,0.0553538932639892,0.111019870273076,0.076497411074592,0.159945139841046,0.0968103653221568,0.00959861045133817,0.0669896705743396,-0.000307498493261987,-0.0227801245490906,0.09357099034673,0.0676570071189862,0.1379146137642,0.0596499068969806,0.0870520523497306,0.142984537833251,0.0448758901604829,0.0528035144756842
201,0.0676488053890049,-0.0093138407544157,0.0262841302202611,0.0271700418222878,0.0416608039600256,0.0576840815749509,0.0286758862657217,0.0605214341397479,0.0759998126086149,-0.00552220425922689,0.0517920102653569,-0.0293721594961626,0.0541735120733097,0.0578971549945548,0.115059275690461,0.0778236956185194,0.16573877197435,0.0993584975108861,0.0106643111701302,0.0692237515519641,0.00097660461400586,-0.0214258273564582,0.0957652375805204,0.0686381645710087,0.139545060958706,0.0618801287452743,0.0899074412272876,0.145345298239708,0.0466978253744835,0.0555848205212473
